122 121 121 121 121 121 122 121 122 121 121 120 121 121 122 120 122 121 121 121 120 120 119 121 123 121 120 121 121 120 121 120 123 121 120 120 121 121 121 121 123 121 121 121 121 121 122 121 123 121 121 121 120 121 122 121 122 121 120 121 120 120 121 120 122 121 121 121 121 120 120 120 123 121 121 121 121 121 122 121 123 122 120 121 120 120 121 120 122 121 121 121 121 120 121 121 122 121 120 121 121 119 120 120 123 121 120 121 121 121 121 120 122 121 121 121 120 120 120 120 122 121 120 121 120 120 122 119
122 121 120 121 120 120 119 120 122 121 121 121 120 120 121 121 122 121 120 121 121 121 120 120 123 121 120 121 121 121 121 121 122 121 120 121 121 121 120 120 122 121 121 121 121 121 121 120 122 121 121 121 121 121 121 121 122 121 120 121 121 120 120 119 123 121 120 120 121 120 120 120 123 121 120 120 121 120 121 120 122 121 121 121 121 120 121 121 122 121 120 121 121 121 122 121 122 120 120 121 121 120 119 120 122 121 120 121 121 121 120 120 123 121 121 121 120 121 121 121 122 121 120 121 121 120 121 121
122 121 121 121 121 120 121 121 122 121 120 121 121 121 121 121 122 121 120 120 121 121 122 120 123 121 120 120 120 120 124 122 122 121 121 121 121 120 120 121 122 121 120 121 121 121 121 120 122 121 121 121 120 120 117 120 123 121 120 121 121 121 122 120 122 121 121 121 120 120 122 120 123 121 120 121 121 120 119 120 123 121 120 121 121 121 120 120 122 121 120 121 121 121 121 121 122 121 121 121 120 120 121 121 121 121 120 121 120 120 123 120 122 121 120 121 121 121 121 120 122 121 121 121 121 121 121 121
122 121 121 121 121 120 120 120 122 121 121 121 121 121 120 120 122 121 120 121 121 122 121 121 122 121 121 121 121 120 120 120 123 121 120 121 121 120 119 119 122 121 121 121 120 120 122 120 122 121 121 121 121 121 124 121 123 122 120 121 121 120 121 121 122 120 120 121 121 120 118 120 122 121 121 120 120 119 117 120 123 121 121 121 120 121 121 121 122 121 121 121 121 121 123 122 122 121 120 121 121 121 122 121 122 121 121 122 121 121 121 121 123 122 121 121 121 121 122 122 123 122 120 121 121 121 121 120
122 121 120 120 120 120 121 120 122 121 120 120 120 120 121 120 122 120 120 121 121 121 122 120 122 120 121 121 121 121 121 120 123 121 121 120 121 121 120 120 123 121 120 121 121 121 122 120 122 122 120 121 121 121 124 121 122 121 120 121 121 120 119 121 122 121 121 121 121 120 121 120 122 121 120 121 121 120 119 120 123 121 120 121 121 121 121 121 122 121 121 121 120 121 121 121 123 121 121 121 120 120 120 120 122 121 121 121 121 121 120 120 123 121 121 120 120 121 121 121 122 121 121 121 121 119 121 120
122 121 120 121 121 121 122 121 122 121 120 121 121 121 121 120 122 121 120 121 121 120 120 120 122 121 121 121 120 120 121 121 122 121 120 121 121 120 120 120 122 120 121 121 121 120 121 120 122 121 121 121 120 121 121 121 122 121 120 121 120 121 121 121 122 121 121 121 120 120 120 121 122 121 121 121 120 120 121 121 122 122 121 120 121 120 121 121 122 121 121 121 121 120 120 121 122 121 121 121 121 120 121 120 122 121 120 121 121 120 120 119 122 121 121 121 120 121 121 121 123 121 120 121 121 120 120 120
122 121 120 121 121 121 120 120 123 122 121 121 121 122 121 121 122 121 120 121 121 120 121 120 122 121 120 120 120 120 122 120 122 121 121 121 121 120 121 120 122 121 121 121 120 120 120 120 122 121 121 121 121 121 120 121 123 121 120 121 121 121 121 121 122 120 120 121 121 120 121 120 122 121 121 121 121 120 121 121 122 121 121 121 120 120 120 120 122 121 120 121 121 121 120 120 123 122 120 121 121 121 121 120 122 121 121 121 121 120 122 120 122 121 120 121 120 120 121 121 123 121 120 120 121 120 120 120
123 121 120 121 121 121 120 120 123 121 121 121 121 121 121 121 122 121 121 121 120 119 122 120 122 121 120 120 120 120 123 120 122 121 121 120 120 120 118 120 123 121 120 121 120 121 119 121 122 121 120 121 121 121 119 120 123 122 120 121 121 121 122 121 122 120 120 121 120 121 125 121 123 121 120 121 121 121 124 121 122 121 121 121 120 120 121 121 123 121 121 121 120 120 121 120 122 121 121 121 121 120 118 120 122 121 121 121 120 120 118 120 123 121 121 121 120 120 120 121 123 121 120 121 121 121 122 121
122 121 121 121 121 120 122 120 122 121 120 121 121 121 123 121 122 121 120 121 121 121 121 121 123 121 120 120 120 120 121 120 122 121 120 121 121 121 121 121 122 121 121 121 121 120 121 121 122 121 121 121 120 120 120 120 122 122 121 121 120 121 121 121 123 121 121 120 121 121 121 121 122 121 121 121 121 121 120 120 122 122 121 121 121 120 122 121 121 121 120 121 121 121 121 119 122 121 121 121 121 120 120 121 122 121 121 121 120 120 121 120 122 121 121 121 121 121 121 121 122 121 121 121 121 120 121 121
123 121 120 121 121 121 121 120 122 120 120 121 121 121 121 121 122 121 120 121 121 120 119 120 122 121 121 121 121 120 121 120 123 121 120 121 120 120 121 121 122 122 121 121 120 120 120 121 123 121 120 121 121 121 119 121 122 120 120 121 120 121 121 120 122 121 120 121 120 120 123 122 122 120 120 121 121 120 124 121 122 121 120 121 121 120 121 120 122 121 121 121 120 120 119 120 122 121 121 121 120 120 120 121 122 121 121 121 120 120 120 120 122 121 121 121 120 120 121 121 122 121 120 121 121 120 121 120
123 121 120 120 121 121 121 120 122 121 121 121 121 121 121 120 122 121 121 121 121 121 121 120 122 121 121 121 120 120 121 121 122 121 121 121 120 120 120 121 122 121 121 120 120 120 121 120 122 121 120 120 121 121 121 120 122 121 120 120 121 121 122 120 122 121 121 121 121 121 121 121 122 121 120 121 121 120 120 120 122 121 120 121 121 121 122 120 122 121 121 121 121 120 119 121 122 121 121 121 120 120 121 121 122 121 120 121 121 121 121 120 122 121 120 121 121 121 121 120 122 121 120 121 121 120 120 120
122 121 120 121 121 121 120 120 123 121 121 121 121 120 120 120 123 121 121 121 121 120 121 120 123 121 120 121 121 121 122 121 123 121 120 121 121 120 122 121 123 121 120 121 121 120 120 120 122 121 120 121 121 121 120 120 122 121 120 121 121 121 120 120 122 121 120 121 121 121 120 119 122 121 121 121 121 120 121 120 123 121 121 120 121 121 122 120 122 121 121 121 120 120 121 121 122 121 121 121 121 120 120 121 123 121 120 121 121 121 121 120 122 121 121 121 121 121 120 120 122 120 121 121 121 120 120 120
122 121 121 121 121 121 121 121 123 121 121 121 121 119 121 120 122 120 120 121 120 121 121 120 123 121 120 120 120 121 121 120 122 121 120 121 121 120 120 121 123 121 121 121 121 121 120 120 123 121 121 121 121 120 121 120 122 120 121 121 121 120 123 121 123 121 120 120 121 121 121 120 123 122 120 121 120 121 120 121 122 121 121 121 121 120 120 120 122 121 120 121 121 121 120 120 123 121 120 121 121 122 122 121 122 121 121 121 121 120 122 122 122 121 120 120 120 120 121 120 122 121 121 121 121 120 120 120
123 121 120 121 120 120 120 120 122 121 120 121 121 121 121 120 123 121 120 121 121 121 122 120 123 121 120 120 121 121 123 121 122 121 120 121 121 121 118 119 122 121 120 121 121 120 120 120 123 121 120 120 120 120 121 121 122 121 120 120 121 121 121 120 122 121 121 121 121 120 121 120 122 121 120 121 121 121 121 120 122 121 120 121 120 120 121 120 123 121 121 121 120 120 122 120 122 121 121 121 121 120 119 120 122 121 120 121 121 120 121 121 122 122 121 121 120 120 122 121 122 121 120 121 121 121 120 120
123 121 120 121 121 121 121 121 122 121 120 120 120 120 120 120 122 121 120 121 121 120 117 120 122 121 120 120 121 121 123 121 123 121 121 121 121 121 122 120 122 121 121 121 121 121 122 121 122 122 121 121 121 121 121 121 122 121 120 121 121 121 121 120 122 121 120 121 121 120 120 120 122 121 121 121 120 120 120 121 122 121 121 121 121 120 120 120 123 121 120 120 121 121 122 121 122 121 120 121 121 121 122 120 122 121 120 121 121 121 122 120 122 121 121 121 121 120 118 119 122 121 120 121 121 121 122 120
122 121 121 121 121 120 123 121 122 121 121 121 120 120 121 122 123 121 121 121 120 121 120 120 122 121 121 121 120 120 121 121 122 121 121 121 120 120 121 120 122 121 120 121 121 121 120 120 123 121 120 121 120 120 121 121 122 121 120 121 121 121 121 120 123 121 120 121 121 121 121 120 122 121 120 120 121 121 121 120 122 121 121 121 121 120 121 120 122 121 121 122 121 120 122 121 122 121 121 121 121 120 121 121 122 121 120 121 120 120 120 119 123 121 120 120 121 121 121 121 122 121 121 121 121 120 121 120
122 121 121 121 121 120 122 121 123 121 120 121 121 121 122 121 122 121 120 121 121 121 118 120 122 121 120 121 121 120 120 120 122 121 121 121 121 120 121 120 122 121 120 121 121 121 121 120 122 121 121 121 121 120 121 121 123 121 121 121 121 121 121 121 122 121 120 120 120 120 121 121 122 121 121 121 120 120 121 120 122 121 120 121 120 120 118 121 123 121 120 121 120 120 120 120 122 121 121 122 121 120 122 121 122 121 121 121 121 120 122 122 122 121 121 121 120 120 122 121 123 121 120 121 121 121 121 120
123 121 120 121 121 121 122 120 122 120 120 121 121 120 120 120 122 120 120 121 121 121 119 121 122 121 120 121 121 121 121 120 123 121 120 121 121 121 121 121 122 121 121 121 120 120 120 120 123 121 120 120 121 121 121 120 122 121 121 121 121 120 121 120 122 121 120 121 121 121 123 121 123 121 120 121 120 119 122 121 123 121 120 121 121 121 120 120 122 121 121 121 120 121 120 121 123 121 120 121 121 121 121 120 123 122 121 121 121 121 122 121 123 121 120 121 121 121 122 120 123 122 121 121 121 121 122 121
122 121 121 121 121 120 121 121 122 121 120 121 121 121 120 120 122 121 121 120 120 120 118 120 122 121 121 121 120 120 120 120 123 121 121 121 121 120 123 121 123 121 121 121 121 121 122 121 122 121 121 121 121 121 122 121 122 121 120 120 120 120 121 121 121 121 121 121 121 120 122 121 122 121 121 121 120 121 122 120 122 121 121 121 122 121 118 121 122 121 121 121 121 120 119 120 122 122 120 121 120 120 122 121 122 120 119 121 120 120 121 120 123 121 121 121 120 121 121 121 123 121 120 121 121 121 121 120
123 121 120 121 121 121 121 120 122 121 121 120 120 120 121 121 123 121 120 121 121 120 121 121 123 121 121 121 121 121 121 120 122 122 121 120 120 121 122 121 122 121 121 121 121 120 119 121 122 121 121 121 121 120 123 120 122 121 121 121 121 120 121 121 122 121 121 121 121 120 119 120 122 120 120 121 121 121 121 120 122 121 120 120 120 121 121 121 122 121 121 121 121 120 120 120 122 121 120 120 120 120 120 120 122 121 120 120 120 121 120 120 123 121 120 121 121 121 122 120 122 121 120 121 121 120 122 121
123 121 121 121 121 121 121 120 122 121 120 121 121 120 120 119 122 121 120 121 121 120 119 121 122 121 120 120 120 120 122 121 122 121 120 121 121 121 122 121 122 121 120 121 121 120 120 121 122 120 121 121 121 121 121 120 122 120 121 121 120 119 120 120 123 121 120 121 121 121 121 121 123 121 121 121 121 121 120 120 122 122 121 121 120 120 121 121 123 121 120 120 120 120 121 121 122 121 121 121 121 120 120 120 122 121 120 120 121 121 120 120 122 121 121 121 121 120 120 121 123 122 120 120 121 121 122 121
123 121 120 121 121 121 123 120 122 121 120 121 121 120 123 121 122 121 120 121 121 120 121 120 123 121 121 121 121 121 119 121 122 121 121 121 121 121 119 120 122 121 121 121 121 120 118 120 122 121 121 121 120 120 116 119 122 120 121 121 121 121 123 121 122 121 121 121 120 120 124 121 123 121 120 121 121 121 120 121 122 121 121 121 120 119 121 121 122 122 121 121 120 120 122 120 123 121 121 121 120 120 120 120 123 121 120 121 121 121 119 121 122 121 120 121 121 121 121 120 123 121 121 121 121 121 123 121
123 121 120 121 121 121 125 122 122 121 120 120 121 120 123 121 123 121 120 120 120 120 119 121 123 121 121 121 120 120 119 121 122 121 120 121 121 120 120 120 122 121 120 120 121 121 120 119 122 121 121 121 121 120 120 121 123 121 120 121 121 121 121 120 122 121 121 121 121 121 120 120 122 121 121 121 121 120 121 121 123 121 120 121 121 121 121 120 123 121 121 121 120 120 122 121 122 121 120 120 121 121 122 121 122 121 120 121 121 120 121 120 122 121 121 121 120 120 120 120 122 121 121 121 121 120 119 120
122 121 121 121 121 121 121 120 122 121 121 122 121 120 121 120 122 121 121 121 121 121 122 120 122 121 121 120 120 121 122 121 122 121 121 121 121 120 120 121 123 121 120 121 121 121 120 120 122 121 120 121 121 120 120 120 123 121 121 121 120 121 123 122 122 121 120 121 121 121 120 121 122 121 120 121 120 120 120 120 123 121 120 121 121 121 120 120 122 121 120 121 121 121 121 120 123 121 120 121 121 121 122 121 122 121 120 121 121 121 121 121 122 121 120 121 121 121 121 121 122 121 120 121 121 120 119 119
123 121 120 121 121 120 121 120 122 121 121 121 120 120 120 120 122 121 120 121 120 121 122 121 123 121 120 120 121 121 122 121 122 120 120 120 120 120 122 121 123 122 121 121 121 121 122 120 122 121 121 121 121 121 120 121 122 121 121 121 121 120 120 120 122 121 121 121 120 120 121 121 122 122 121 121 121 121 120 120 123 121 120 121 121 120 121 120 123 121 120 121 121 121 121 120 123 121 120 120 120 121 121 121 122 121 121 121 120 120 120 120 122 121 121 121 121 120 121 120 123 121 120 121 121 121 121 120
122 120 120 120 120 121 121 121 122 121 120 121 121 120 122 121 122 121 121 121 121 121 122 121 123 121 120 121 121 120 123 121 122 121 121 121 120 120 120 120 122 121 121 121 121 120 119 121 123 121 121 120 120 120 117 120 122 121 121 121 121 120 119 121 122 121 121 121 120 120 123 120 122 121 121 121 120 120 124 121 123 121 120 121 121 121 121 120 122 121 120 121 121 120 120 120 122 120 121 121 121 121 121 120 123 121 120 121 121 121 120 120 122 121 121 121 121 121 120 120 122 121 121 121 121 120 121 121
122 120 120 121 121 121 122 121 122 121 121 121 120 120 118 121 122 121 121 121 121 119 120 120 123 121 120 120 121 120 119 120 122 121 120 121 121 120 121 120 122 121 121 121 121 121 123 121 122 121 121 121 121 121 127 122 122 121 120 121 121 121 118 120 122 121 120 121 121 121 119 121 123 121 120 121 121 120 121 120 122 121 120 121 121 121 121 119 122 121 120 121 120 119 120 121 123 121 121 120 121 121 121 120 123 121 120 121 121 121 121 120 121 121 120 121 121 121 121 119 123 121 120 121 121 121 121 120
123 121 120 120 121 121 121 120 122 121 120 121 121 121 121 120 122 121 120 121 120 121 122 121 123 122 121 121 121 120 119 121 123 122 120 121 121 121 121 120 122 121 121 121 121 120 120 120 122 121 121 121 121 120 120 121 123 122 120 121 121 121 122 121 122 121 120 121 121 120 121 120 122 121 120 120 120 120 120 120 122 121 121 121 120 120 121 121 122 121 121 121 121 120 121 121 122 121 120 121 121 121 120 121 122 121 121 121 120 120 119 121 122 121 120 121 121 120 119 121 122 121 120 121 121 121 121 120
123 121 121 121 120 120 123 122 123 121 121 120 121 121 122 121 123 121 120 120 121 121 121 120 122 121 121 120 120 120 119 121 122 121 120 120 121 121 120 120 122 122 121 120 121 120 122 120 123 121 120 121 121 121 125 121 122 121 120 121 120 121 120 120 122 121 120 121 120 120 119 122 123 121 120 120 121 121 120 120 122 120 120 121 121 120 122 120 122 121 121 121 120 120 121 121 122 121 121 121 121 120 121 121 123 121 121 121 121 121 120 120 122 121 120 120 120 120 120 120 122 120 120 121 121 121 121 120
122 121 120 120 121 121 121 120 122 121 120 121 120 120 120 120 122 121 120 121 121 121 121 121 122 121 121 121 120 120 121 120 123 121 120 121 121 120 120 119 123 121 120 121 121 121 121 120 122 121 120 121 121 121 122 121 123 121 120 120 120 121 121 120 122 121 120 121 121 120 119 120 123 121 120 120 120 121 121 121 123 121 120 121 121 121 122 120 123 121 120 120 121 121 121 120 122 121 121 121 121 120 121 120 123 121 120 121 121 121 121 120 123 121 121 121 121 121 121 120 123 121 120 121 121 121 121 121
122 121 121 121 121 120 121 121 122 121 121 121 121 120 119 121 122 121 121 121 121 120 121 120 122 121 121 121 121 121 120 120 122 121 121 121 121 120 120 120 122 121 120 120 120 120 122 120 122 121 120 120 121 120 120 120 122 121 120 121 121 121 120 120 123 122 121 121 121 121 121 120 122 121 121 122 121 120 120 121 123 121 121 121 121 120 121 121 122 121 120 121 121 120 120 120 122 121 120 121 121 121 122 121 122 121 120 121 121 120 120 120 123 121 121 120 120 121 120 120 123 121 120 121 120 121 121 121
123 121 120 120 121 121 120 119 122 122 120 121 120 120 117 120 122 121 120 121 121 121 122 121 123 121 120 121 121 121 126 123 122 121 120 120 121 121 124 122 123 122 120 121 121 121 120 120 122 121 121 121 121 120 119 120 123 121 120 120 121 120 120 120 123 121 120 121 121 121 120 120 122 121 121 121 121 120 120 120 122 121 121 121 121 121 120 120 122 121 121 121 121 121 122 121 123 121 120 121 120 120 122 121 122 121 120 121 121 122 122 121 122 121 121 121 121 120 121 120 122 120 121 121 120 119 120 119
122 121 121 121 120 120 119 120 123 122 121 121 121 121 115 120 122 120 120 121 121 121 122 120 122 121 121 121 120 120 125 121 122 121 120 120 121 121 120 121 122 121 121 121 121 121 121 121 123 121 120 120 121 120 120 120 123 122 121 121 120 121 121 121 123 122 121 121 121 120 121 121 122 121 121 120 121 121 123 120 123 121 121 120 121 121 122 120 122 121 121 121 121 119 120 120 122 122 121 121 121 120 120 120 122 121 121 121 121 120 121 121 122 121 121 121 121 120 122 121 122 120 120 121 121 121 121 120
122 121 121 120 121 121 121 120 122 121 121 122 121 120 121 121 122 121 121 121 121 120 120 121 123 121 120 121 121 121 121 120 122 121 121 121 121 120 121 121 123 121 120 121 121 121 120 120 123 121 121 120 120 120 121 121 123 121 120 121 121 121 121 120 122 121 120 121 121 121 121 120 123 121 120 121 121 121 121 120 122 121 120 121 121 121 121 120 123 121 121 121 120 120 121 121 122 121 121 121 121 120 121 120 122 121 121 121 122 121 121 121 122 121 121 121 121 121 121 121 122 121 121 120 120 120 121 120
123 121 121 121 120 120 121 121 123 121 120 121 121 121 119 120 122 121 120 121 120 121 121 121 123 121 121 121 121 121 122 121 122 121 121 121 121 121 123 122 122 122 121 121 120 120 120 120 122 121 121 121 120 120 122 121 123 121 120 120 120 120 121 120 122 121 120 121 121 120 119 120 122 121 121 121 121 120 119 121 123 121 120 121 120 120 121 121 123 121 120 120 120 120 121 121 122 121 121 121 120 120 121 121 122 121 120 121 121 121 121 120 122 121 121 121 120 120 122 120 122 121 121 122 121 120 120 120
123 121 120 120 121 121 121 120 123 121 120 121 121 121 120 120 123 121 120 120 121 121 120 121 122 121 120 121 121 121 122 120 122 120 120 120 120 120 122 121 122 121 120 121 121 121 122 120 122 120 120 121 121 121 118 120 122 120 120 121 121 121 120 119 122 121 121 121 121 120 122 120 122 121 121 121 121 120 120 120 123 121 121 121 121 121 121 121 122 121 120 121 121 119 121 120 122 121 121 121 120 121 120 120 122 121 121 120 121 121 120 121 122 121 120 121 120 120 120 120 123 122 121 121 120 121 122 121
122 121 120 121 121 121 121 120 123 121 120 121 121 121 122 120 123 122 121 121 121 121 122 121 122 121 121 121 121 120 119 121 123 121 121 121 121 121 120 120 121 120 120 121 120 119 116 119 122 121 121 121 121 120 123 121 123 121 120 121 121 121 122 121 122 121 121 121 120 120 121 121 122 121 120 120 120 121 121 120 122 121 120 121 121 121 121 120 122 121 121 121 121 120 122 120 122 121 121 121 121 120 123 122 123 121 120 121 121 121 121 121 122 122 120 121 121 121 120 120 122 121 120 121 121 120 121 120
122 121 121 121 121 120 121 120 122 121 121 121 121 120 119 120 123 121 121 121 120 120 120 121 122 121 120 121 121 121 123 121 122 121 120 121 120 121 123 121 122 121 121 121 120 120 120 121 122 121 121 121 121 120 119 120 122 121 121 121 122 121 120 120 122 121 121 121 120 120 121 120 123 121 120 121 121 120 122 120 121 121 121 121 121 121 121 120 122 121 121 121 121 120 121 121 123 121 120 121 121 121 121 120 123 121 120 121 121 120 120 120 123 121 120 121 120 120 121 121 122 120 121 122 121 121 122 120
122 121 120 121 121 121 118 120 122 120 120 121 121 121 120 120 123 121 121 120 121 121 122 120 122 121 121 121 121 121 124 121 122 121 120 121 121 120 120 120 123 121 120 121 121 120 119 121 122 121 120 121 121 120 121 120 122 121 120 121 121 121 121 120 122 121 121 120 120 120 120 120 122 121 120 121 121 121 120 120 122 121 121 121 120 121 121 121 123 121 120 121 121 120 120 121 122 121 121 121 121 120 121 120 122 121 121 121 121 120 120 120 122 121 120 121 121 120 121 120 122 121 120 120 120 120 120 120
122 121 121 121 121 121 120 120 122 121 121 121 120 120 121 121 122 121 121 121 121 121 122 121 123 122 121 121 121 121 121 121 123 121 120 121 121 120 119 121 122 120 121 121 121 121 121 121 122 121 121 121 121 120 121 121 123 121 121 121 121 121 120 119 122 121 121 121 120 120 120 120 122 121 120 121 121 120 122 120 123 121 120 120 120 120 122 121 122 120 120 121 120 121 122 121 123 121 121 121 121 121 120 120 123 121 120 121 121 121 120 120 122 121 121 121 121 121 121 121 122 121 121 121 121 121 122 121
122 121 121 121 121 120 119 120 122 121 121 121 120 120 118 120 122 121 121 121 120 120 121 120 123 121 120 121 121 121 122 121 122 121 121 121 121 122 122 121 123 121 120 121 120 121 120 120 122 121 120 121 120 119 120 120 122 121 120 121 121 121 121 120 123 121 120 121 121 120 123 120 122 121 121 121 121 120 123 121 122 121 121 121 121 120 118 121 122 121 120 121 121 121 120 120 122 121 120 121 120 120 120 120 123 121 120 120 120 121 120 121 122 121 120 121 121 120 116 119 122 121 120 121 121 121 121 120
122 121 120 121 120 120 122 121 122 121 121 121 121 120 122 121 122 121 120 121 121 121 122 120 123 121 121 121 121 121 123 121 123 121 120 120 121 121 121 120 123 121 120 121 121 121 120 120 122 121 120 121 121 121 121 120 122 121 121 121 120 120 121 121 123 121 120 120 120 120 121 121 122 120 120 121 121 121 120 120 122 121 120 120 121 121 121 120 122 121 120 121 121 121 121 120 122 122 121 121 120 120 120 120 122 121 121 121 120 120 122 121 122 121 120 120 121 121 122 120 122 121 120 121 121 120 120 120
123 121 121 120 121 120 121 121 123 121 120 121 121 121 122 121 122 121 121 121 120 120 120 120 122 121 121 121 121 121 120 121 122 121 121 121 120 120 120 120 122 121 120 121 121 121 121 120 122 121 120 120 121 121 121 121 122 121 120 121 121 120 121 120 122 121 121 121 121 121 122 121 123 121 121 121 121 121 121 120 122 121 120 121 120 120 120 120 122 121 121 121 121 121 119 121 123 121 121 121 120 120 120 120 122 121 121 121 120 120 122 120 122 121 120 121 121 121 123 121 122 120 120 121 121 120 121 120
122 121 120 121 121 121 119 120 122 121 121 121 120 120 121 121 122 121 121 121 121 120 121 121 122 121 121 121 121 120 121 121 123 121 120 120 121 121 121 121 121 121 121 121 121 120 120 120 123 121 120 121 121 121 121 120 122 121 121 121 121 121 121 121 122 121 121 121 120 119 120 119 122 121 120 121 121 120 121 120 122 121 120 121 121 120 122 120 123 121 120 121 121 121 123 121 122 121 121 121 121 121 118 121 122 121 121 121 121 120 120 120 122 121 120 121 121 120 120 121 122 121 120 121 121 121 121 121
122 121 121 121 121 120 121 120 123 121 120 121 120 120 124 121 122 121 120 121 121 120 119 120 122 121 121 121 121 120 120 120 122 122 121 121 120 120 121 121 122 121 120 120 120 121 121 121 123 121 120 120 120 120 120 121 123 121 121 121 121 121 121 121 122 120 121 121 121 121 121 119 122 120 121 121 120 120 122 121 122 121 120 121 121 120 121 120 123 121 120 121 121 121 120 120 122 121 120 121 120 120 120 120 123 121 120 121 121 121 121 120 122 121 121 121 121 121 121 120 122 121 121 121 121 120 121 120
122 121 121 121 120 121 120 121 122 121 120 121 121 121 121 121 123 121 121 120 121 121 122 120 122 121 121 121 121 120 122 121 123 121 120 121 121 121 122 120 123 121 120 121 121 121 117 120 122 121 121 121 120 121 121 121 123 121 120 121 121 121 121 121 123 121 120 121 121 121 121 120 123 121 121 121 121 121 121 121 122 121 121 121 120 120 120 121 122 122 121 121 120 121 121 120 122 121 121 120 121 121 121 120 123 121 121 121 121 120 122 121 123 121 121 121 121 120 120 120 122 121 120 121 121 120 119 120
121 121 120 121 121 120 121 120 122 121 121 121 120 120 123 121 122 121 121 121 121 121 125 122 122 121 121 121 120 121 121 121 123 122 121 121 121 121 119 120 122 121 120 121 120 120 119 120 122 121 120 121 121 120 120 120 122 121 121 121 121 120 115 120 122 121 121 121 121 120 122 121 123 121 121 121 121 121 124 121 123 121 120 120 121 121 123 121 122 121 120 121 121 121 121 120 123 121 120 121 121 121 121 120 123 122 121 121 121 121 121 121 122 121 121 121 121 120 121 121 122 121 121 121 121 120 120 120
122 121 120 121 121 121 120 120 122 122 120 120 121 121 120 120 122 121 120 121 121 121 121 120 122 121 121 121 120 121 122 121 122 121 120 121 120 120 123 121 122 122 121 121 120 119 120 120 123 122 121 121 121 120 121 121 122 121 121 121 121 120 121 121 122 121 121 121 121 120 120 121 123 121 120 121 121 121 121 120 122 121 121 121 120 120 120 120 122 121 121 121 120 121 121 121 123 121 120 121 120 121 121 120 123 121 120 121 121 120 123 121 122 121 121 121 120 120 119 120 122 121 120 121 121 121 120 119
123 121 121 121 121 121 121 121 122 121 120 121 121 121 120 121 123 121 120 120 121 120 122 121 123 121 120 121 121 121 121 121 123 121 120 120 121 120 121 121 122 120 120 121 121 121 121 120 122 121 121 121 120 121 122 121 122 121 121 121 120 120 121 120 123 121 120 120 120 121 121 120 123 122 120 120 121 121 120 120 122 121 121 121 120 119 120 120 123 121 120 120 121 121 121 120 123 122 120 121 121 121 121 121 123 121 120 121 121 120 121 120 122 121 121 121 121 120 120 120 122 121 120 121 121 121 120 120
122 120 120 121 121 121 121 120 123 121 120 121 121 120 121 120 123 121 121 121 121 121 121 121 122 121 120 121 121 121 120 119 122 121 121 121 120 119 121 120 122 121 120 121 121 121 123 120 123 121 120 121 121 121 118 121 123 121 121 121 121 121 122 121 122 121 120 121 121 120 120 120 122 121 120 121 120 120 121 121 122 121 121 121 121 121 122 120 122 121 121 121 120 120 121 120 122 121 120 120 120 120 122 121 122 122 120 121 121 120 120 121 123 121 120 120 120 121 120 120 122 121 121 121 121 120 119 121
123 121 121 121 121 121 122 122 123 121 121 121 121 121 122 121 122 121 121 121 120 119 120 120 122 121 120 121 121 121 123 120 122 121 120 121 121 120 120 120 122 121 121 121 121 120 118 120 122 121 121 121 121 121 120 121 123 122 120 121 121 121 121 120 122 121 121 121 121 120 120 120 123 121 121 121 120 121 121 120 122 121 121 121 121 121 122 121 122 122 121 120 121 121 122 121 122 121 121 121 121 121 121 120 122 121 121 121 120 121 121 120 122 120 120 121 121 120 120 120 122 120 120 121 120 121 121 119
122 121 120 121 121 121 121 120 122 121 121 121 121 120 121 121 122 121 120 122 121 121 120 121 122 121 120 121 121 121 120 120 122 121 121 121 121 121 121 120 123 121 120 121 121 120 120 121 122 121 121 121 121 120 121 121 123 122 121 120 121 121 121 120 122 121 121 121 121 120 121 121 122 121 121 121 121 120 121 121 122 121 121 121 121 121 121 120 122 121 121 121 120 120 119 120 123 121 121 121 120 121 119 121 123 121 120 121 121 120 125 121 122 121 121 120 121 121 119 120 122 121 120 121 121 121 122 121
123 121 120 121 121 121 120 120 123 121 120 121 120 120 121 120 122 121 121 120 121 121 122 121 122 121 120 121 121 120 121 121 123 121 120 121 121 121 121 120 123 121 121 120 120 120 122 121 122 120 120 121 120 120 121 120 122 121 121 121 121 120 122 120 122 121 121 121 121 120 122 121 122 122 120 121 120 120 119 121 122 121 121 121 121 120 120 121 122 121 121 121 120 121 121 121 123 122 120 121 120 121 121 121 122 121 121 121 121 120 121 120 122 120 120 121 121 120 121 120 122 121 121 121 121 120 120 120
122 121 121 121 121 120 121 120 122 121 121 121 121 120 120 121 122 122 121 120 121 121 121 120 122 121 121 121 121 120 122 121 123 121 120 121 121 121 122 120 122 121 120 121 121 121 120 120 122 120 120 121 121 121 121 120 123 122 121 121 121 121 121 121 122 121 120 121 121 120 121 120 122 121 120 121 121 120 121 120 122 121 121 121 120 120 121 121 122 121 121 121 120 120 121 121 122 121 121 121 121 120 121 121 123 121 120 121 121 121 121 121 122 121 120 121 121 121 121 121 122 121 120 121 121 120 121 120
123 121 120 120 120 120 120 120 122 121 121 121 120 120 120 120 122 121 121 121 121 120 120 120 122 121 121 121 121 120 122 120 122 121 121 121 120 119 120 120 122 121 121 121 121 120 121 120 122 121 121 121 120 121 121 121 122 121 120 121 121 121 120 120 123 122 121 121 120 120 122 121 123 121 121 121 121 121 121 121 123 121 121 121 121 121 123 122 122 121 120 120 121 121 123 121 122 121 120 121 120 120 118 119 122 121 120 120 120 120 120 119 122 121 120 120 120 120 123 121 123 121 120 121 121 121 120 120
123 120 120 120 120 121 121 121 122 121 121 121 121 120 122 120 123 121 120 121 121 121 120 119 122 121 120 121 121 121 119 120 123 121 120 121 121 121 116 120 122 121 120 121 121 121 122 120 123 122 121 121 120 121 125 123 123 121 120 121 121 122 123 121 122 120 120 121 121 121 121 120 122 121 121 121 121 120 120 120 122 121 120 120 121 120 120 121 122 121 121 121 121 120 120 120 122 121 121 121 121 121 122 121 122 121 121 121 120 120 121 120 122 121 121 120 120 120 121 120 123 121 120 121 121 121 121 121
122 121 120 120 120 120 122 121 122 121 121 121 121 120 121 120 122 121 121 121 121 121 121 120 122 121 120 121 121 122 121 121 122 121 121 121 121 120 120 120 122 120 120 121 120 120 121 120 122 121 120 121 121 121 121 121 122 122 121 121 121 121 121 121 122 121 120 121 121 121 121 120 123 122 120 121 121 121 121 121 123 121 120 120 121 121 121 120 122 121 120 121 120 121 121 120 122 121 120 121 120 120 121 120 123 121 120 121 121 121 121 121 122 121 120 121 121 121 120 121 123 121 120 121 121 121 122 121
123 121 120 120 120 119 122 121 123 121 120 121 121 121 123 121 122 121 120 121 120 120 121 120 122 121 120 120 121 120 115 119 122 121 120 121 120 120 120 120 123 121 121 121 120 121 122 121 122 121 121 122 120 120 121 121 122 121 121 121 121 120 120 120 122 121 121 121 121 120 121 120 122 121 121 121 121 121 121 120 122 122 121 120 120 121 122 121 122 121 120 121 121 120 121 120 122 121 121 121 121 121 121 121 122 121 121 121 121 120 120 119 122 121 120 121 121 121 120 120 123 121 121 121 121 121 122 121
122 121 120 121 121 120 122 121 122 122 121 121 121 121 121 120 122 121 120 121 121 121 121 120 122 121 121 121 121 121 121 121 123 121 120 121 121 120 121 121 122 121 120 121 121 121 121 121 123 121 120 120 121 121 121 120 122 121 120 121 121 120 121 121 122 121 120 120 121 121 122 120 123 121 121 121 121 121 120 120 123 121 121 121 120 120 121 120 122 121 121 121 121 120 121 121 122 121 120 121 120 120 121 120 123 121 120 121 121 121 118 120 122 121 120 121 121 120 123 121 122 121 121 121 121 120 120 120
122 121 121 121 121 120 120 121 123 121 120 121 121 121 121 121 123 121 120 120 120 121 121 120 122 121 121 121 120 120 122 120 122 121 121 121 121 120 125 121 122 121 120 121 121 121 119 121 122 122 120 121 121 121 119 121 122 121 121 121 121 120 119 121 122 122 120 121 120 120 121 120 122 121 121 121 120 121 123 121 122 121 120 120 120 120 123 121 122 121 120 121 121 120 121 120 122 121 120 120 120 121 118 121 122 121 121 121 121 121 122 121 122 121 121 121 121 120 120 119 122 121 121 121 121 120 121 121
123 121 120 121 121 121 121 120 122 121 121 121 120 120 121 120 122 121 121 121 121 121 121 120 122 121 120 120 121 120 121 120 123 121 120 121 120 120 121 121 123 121 120 120 121 120 123 122 122 121 120 121 121 121 121 120 122 120 121 121 121 120 120 120 123 121 121 121 121 120 121 120 122 122 120 121 121 121 121 121 123 121 120 121 121 121 121 120 122 121 121 121 121 120 120 121 122 121 121 121 121 121 121 120 123 121 120 121 120 120 121 121 122 121 121 121 121 121 120 119 122 121 120 121 120 120 121 121
122 121 120 121 120 121 121 121 122 121 120 121 120 120 120 120 122 121 120 121 121 120 120 120 122 121 121 121 120 120 121 121 123 121 121 121 121 120 121 121 122 121 121 121 121 120 121 120 122 121 121 121 121 120 121 120 123 122 121 121 121 121 122 121 122 121 121 121 121 120 121 121 122 121 120 121 121 121 121 120 123 121 120 121 121 121 120 120 123 121 120 121 121 121 119 121 122 121 120 121 121 120 116 120 122 121 121 121 121 120 123 121 122 121 120 121 121 121 121 120 123 121 120 120 121 121 123 120
122 121 120 121 121 120 120 120 123 121 120 121 121 121 122 120 123 121 121 120 121 121 123 122 123 121 121 121 121 121 121 120 122 121 120 121 120 121 121 120 122 121 120 121 121 121 122 120 122 120 120 121 121 120 122 121 122 121 120 120 121 120 119 120 122 121 121 121 121 120 117 120 122 121 121 121 121 121 121 120 123 121 120 121 121 121 123 121 122 121 121 121 121 120 122 121 122 120 120 121 121 120 120 120 122 121 121 121 121 120 120 120 122 121 120 121 121 121 122 120 123 122 120 121 120 121 121 120
122 121 120 120 121 120 120 120 122 120 121 120 121 121 121 121 123 121 120 121 121 121 121 120 122 121 120 121 121 121 121 120 122 121 121 121 120 120 121 121 122 120 120 121 121 121 120 120 123 121 120 120 120 120 120 120 122 121 120 121 120 120 120 120 122 121 121 121 121 121 121 121 123 121 120 121 121 121 121 120 122 121 120 121 121 120 121 120 122 121 121 121 121 120 120 120 122 121 121 121 121 121 121 121 122 120 120 121 121 120 121 120 122 121 121 121 120 120 121 122 122 121 121 121 121 120 119 120
123 121 120 120 121 121 122 121 123 121 120 121 121 121 122 121 123 121 120 121 121 120 122 121 122 121 120 121 121 121 123 120 122 121 121 121 120 120 117 120 123 122 121 121 120 121 115 120 122 120 120 121 121 121 123 121 122 121 121 121 121 120 123 121 122 121 120 121 121 121 120 121 123 121 120 120 121 121 121 121 123 121 120 120 120 121 122 121 122 121 120 121 120 121 120 119 122 121 121 121 120 120 121 121 122 121 121 121 121 120 120 121 122 121 121 121 121 121 122 121 122 121 120 121 121 120 121 120
122 121 121 121 121 120 120 120 123 121 120 121 121 121 121 120 122 122 121 121 121 121 121 121 122 121 121 121 120 121 121 120 123 121 120 120 120 121 121 120 122 121 120 121 121 120 120 120 122 121 121 121 121 120 120 120 122 121 121 121 121 121 120 120 122 122 121 121 121 121 121 121 122 121 121 121 121 120 121 121 122 121 121 121 121 120 123 121 122 121 121 120 120 120 121 121 123 121 120 121 121 120 120 120 122 121 121 121 121 120 120 120 123 121 120 121 121 121 121 121 122 121 120 121 121 120 121 121
122 121 121 121 120 120 122 121 123 121 120 120 121 121 122 120 123 121 121 121 120 121 121 121 122 121 121 121 121 121 120 120 122 121 120 120 121 120 120 120 122 121 121 121 121 120 120 120 122 121 121 121 121 120 122 120 122 121 121 121 121 121 122 121 122 121 120 121 121 121 119 120 122 121 121 121 121 120 119 120 122 121 120 121 121 120 122 120 122 121 121 121 121 121 121 121 123 121 120 120 121 121 122 121 123 121 121 121 120 121 122 121 122 121 120 121 121 121 120 120 122 121 121 121 120 121 120 121
122 121 120 121 120 119 115 119 122 121 121 121 121 120 120 120 122 121 121 121 120 120 123 121 122 120 120 121 121 120 121 120 123 121 121 121 121 121 123 121 122 121 121 121 121 119 122 121 122 121 120 121 121 120 121 120 122 122 121 120 121 121 118 120 122 121 120 121 121 120 121 120 123 121 120 121 121 121 122 121 122 121 120 121 121 121 121 120 122 120 120 120 121 120 121 120 123 121 120 121 121 121 120 120 123 121 120 121 121 121 120 120 122 122 121 121 121 121 121 121 123 121 121 121 121 121 121 121
123 121 120 121 121 121 121 120 122 121 120 121 121 120 121 121 122 121 121 121 121 120 121 121 123 121 120 120 121 120 121 120 122 121 121 121 121 121 121 121 123 121 120 121 121 121 120 120 122 121 121 121 120 119 120 120 123 121 120 121 120 120 121 120 122 121 121 121 121 120 122 121 122 121 121 120 120 121 121 121 122 121 120 121 121 121 120 120 122 121 121 122 121 120 119 121 122 121 121 121 121 120 120 121 122 121 120 121 120 120 121 120 122 121 121 121 121 120 121 120 122 120 120 121 121 121 121 120
123 121 120 121 121 121 123 120 122 121 120 120 120 120 120 120 122 121 120 121 121 121 120 120 123 121 121 121 121 121 122 121 122 121 120 121 121 121 123 121 123 121 121 121 121 120 121 120 122 121 121 121 121 120 120 121 122 121 120 121 121 120 118 119 122 121 121 121 121 120 118 121 122 121 121 121 121 121 122 121 122 120 121 121 121 121 123 121 122 121 120 120 120 119 120 120 122 121 120 120 120 120 121 121 122 121 121 121 120 121 121 121 123 121 120 121 121 122 121 120 123 121 120 121 121 120 120 120
122 121 120 121 121 120 119 121 123 121 121 121 120 120 122 120 123 121 120 121 121 121 123 121 122 121 120 121 121 121 122 120 122 121 120 121 120 120 120 120 122 121 120 120 121 121 121 120 123 121 120 121 121 121 121 121 122 121 120 120 120 120 120 120 122 121 120 120 120 120 121 121 122 121 120 121 121 120 120 120 122 121 121 121 121 121 121 121 122 121 121 121 120 120 121 121 123 121 121 121 121 120 122 120 123 121 120 120 120 121 121 120 122 121 121 121 121 120 122 120 122 121 121 120 120 120 118 121
122 121 120 121 121 121 121 120 122 121 121 121 120 121 122 121 123 121 120 120 121 121 121 120 122 121 121 121 121 120 120 120 123 121 120 121 121 121 120 120 123 121 120 121 121 120 122 120 123 121 120 121 121 121 122 121 122 121 121 121 120 121 121 121 122 121 120 121 121 120 121 121 123 122 121 121 121 121 122 121 122 120 120 121 120 120 121 119 122 121 121 121 120 120 120 121 122 121 120 121 121 121 119 120 122 121 120 121 121 120 117 120 122 121 121 121 121 120 122 120 122 121 121 121 121 120 119 121
122 121 121 121 121 121 122 121 122 121 120 121 121 121 121 121 123 121 120 121 121 121 121 121 122 121 121 120 120 120 122 121 123 122 121 120 121 121 124 122 122 121 120 121 120 120 120 119 122 121 120 121 121 120 120 120 123 121 121 121 121 122 121 121 123 121 121 121 121 120 121 121 123 121 121 121 120 120 120 120 123 121 120 121 121 121 121 120 122 121 120 121 121 120 119 120 122 121 120 121 121 120 121 120 122 121 120 121 121 120 121 120 123 121 121 121 120 121 120 120 123 122 120 121 120 121 121 120
122 122 121 120 120 120 120 121 122 121 120 121 121 121 119 120 123 122 120 121 121 121 121 121 123 120 120 121 121 121 122 120 123 121 120 121 121 121 123 121 123 121 120 121 121 121 121 121 123 122 121 120 121 121 122 120 122 121 121 121 120 120 119 120 122 121 120 121 121 120 119 120 122 121 121 121 121 120 120 120 122 121 121 121 121 120 121 121 123 121 121 121 121 121 122 121 121 121 121 121 121 119 120 119 122 121 120 121 121 120 122 121 122 121 120 121 121 121 120 120 122 121 121 121 121 120 120 120
123 121 121 121 120 121 121 121 122 120 120 121 121 121 122 121 122 121 121 121 121 120 121 120 123 121 120 121 121 121 122 121 122 121 121 121 121 120 121 121 121 121 120 121 121 120 118 119 122 120 121 121 121 121 122 120 123 121 121 121 121 121 123 121 122 121 121 121 121 120 120 120 122 121 120 120 120 120 120 120 122 121 121 120 120 120 116 120 123 122 121 121 120 121 123 121 122 122 121 121 121 121 123 121 123 121 120 121 121 120 122 120 123 122 120 121 120 120 122 121 122 121 121 120 121 121 122 121
123 121 121 121 120 121 121 121 122 121 120 120 120 120 121 120 122 121 120 121 121 121 121 121 122 121 120 120 121 121 122 121 122 120 119 121 121 121 121 120 122 121 121 121 121 122 121 121 122 121 120 121 121 119 119 120 122 121 121 121 121 120 121 121 122 121 121 121 121 120 121 121 123 121 120 121 121 120 121 120 123 121 120 121 121 120 120 120 122 121 120 121 121 120 120 120 123 121 120 121 120 120 121 120 123 121 120 121 121 121 121 120 122 121 121 121 120 120 121 120 123 121 120 120 121 121 123 120
122 121 120 121 121 120 119 120 122 121 120 121 121 121 120 120 123 121 120 120 120 121 121 121 123 121 121 121 120 121 122 121 122 121 121 121 121 120 119 121 122 121 120 121 120 121 120 120 122 121 120 120 120 120 122 121 122 121 121 121 120 120 122 121 123 121 121 121 121 120 121 121 122 121 120 120 121 121 120 120 122 121 121 121 121 120 121 120 122 121 120 120 121 121 120 120 123 121 120 121 121 121 120 120 123 122 121 120 120 121 120 120 122 121 121 121 120 120 123 121 122 121 121 121 120 120 121 121
122 121 121 121 120 120 120 120 122 121 121 121 120 120 122 121 122 121 121 121 121 120 121 120 122 121 121 121 121 121 120 120 122 121 120 121 121 120 119 120 122 121 120 120 121 120 121 120 123 121 121 121 120 121 120 121 122 121 120 121 121 121 124 121 122 121 121 121 121 120 122 121 123 121 120 121 121 121 121 120 122 121 121 121 120 120 121 121 122 121 120 120 121 121 121 121 122 121 120 121 121 120 120 120 122 121 120 121 121 121 121 120 123 121 120 121 121 121 120 120 122 121 120 121 121 121 121 120
123 121 120 121 121 121 121 120 123 121 121 121 121 121 121 121 122 121 120 121 121 120 121 120 122 121 121 121 121 120 122 120 123 122 120 121 121 121 123 120 122 121 121 121 121 120 120 120 122 121 120 120 120 120 118 120 122 121 121 121 121 120 120 120 122 121 121 121 120 121 121 121 123 122 121 121 121 121 121 121 122 121 121 121 121 120 121 121 122 121 121 121 121 121 121 120 122 121 120 121 120 120 121 120 123 121 120 121 121 120 121 121 122 121 121 121 121 121 121 121 122 121 121 122 120 120 120 120
122 121 120 121 120 120 120 119 122 121 120 120 121 121 121 120 122 121 120 121 120 120 121 121 123 121 121 121 121 121 121 121 122 121 121 121 120 121 121 121 123 121 121 121 121 121 121 121 122 121 120 121 121 120 121 121 122 121 121 121 120 121 121 121 122 121 121 121 121 120 121 121 122 121 121 121 121 120 121 120 123 121 120 120 121 120 121 121 122 121 121 121 121 120 120 120 122 120 119 121 120 120 122 121 122 121 121 121 120 120 120 121 122 121 121 121 121 121 122 121 123 121 121 121 120 121 123 121
122 121 120 121 121 121 121 120 123 121 120 121 120 120 119 120 123 121 121 121 120 119 117 120 122 121 121 121 121 121 120 121 123 121 120 121 121 121 123 121 122 122 121 121 120 121 122 121 122 121 120 121 121 121 121 121 123 121 120 120 120 120 121 120 122 121 121 121 121 120 121 120 122 121 121 120 120 120 121 121 123 122 120 120 121 121 122 121 122 121 121 121 121 120 122 120 123 121 120 121 121 120 121 119 123 121 120 121 120 120 118 120 122 121 121 121 120 120 121 120 122 120 120 121 121 121 121 120
122 121 121 121 120 121 121 121 122 122 120 120 120 121 121 121 122 121 120 121 121 121 121 121 123 121 120 121 120 120 121 120 122 121 121 121 121 121 121 121 122 121 121 121 121 120 121 121 122 121 121 121 120 120 121 121 123 121 121 121 120 120 121 121 122 121 121 121 121 120 120 120 122 120 121 121 121 120 119 121 122 121 121 121 121 120 120 120 122 121 120 121 121 121 123 120 122 121 120 121 121 121 124 121 123 121 121 120 121 121 121 121 122 121 120 121 121 121 122 120 122 121 121 121 121 120 118 121
122 121 121 121 121 121 120 120 122 121 121 121 120 120 120 120 122 121 120 120 120 120 120 120 123 121 121 120 121 121 121 121 123 121 120 120 120 120 121 120 122 121 121 121 120 120 122 121 122 121 120 121 121 121 122 120 122 121 121 121 121 120 119 121 122 121 121 121 121 120 121 120 123 121 120 121 121 121 121 120 122 121 121 121 121 120 121 121 123 122 121 121 120 121 121 121 122 121 121 120 121 120 122 121 123 122 120 121 121 121 122 121 123 121 121 121 120 120 121 120 122 121 121 121 121 120 121 120
122 121 121 122 121 120 121 120 122 121 120 121 120 120 121 120 122 121 121 121 120 120 120 120 122 121 121 121 120 120 119 120 123 121 120 121 121 121 117 120 122 121 121 121 121 120 122 122 123 121 121 120 121 121 122 120 122 121 121 121 120 120 123 120 122 121 121 121 120 120 123 121 122 121 121 121 120 120 117 121 122 121 121 121 121 120 119 121 122 121 121 121 121 120 122 121 122 121 121 121 121 120 122 121 122 121 120 120 120 120 121 121 122 121 120 121 121 121 120 120 122 121 120 121 121 121 121 120
123 121 120 121 121 121 120 119 122 121 121 121 120 120 121 121 122 121 121 121 121 120 121 121 122 121 121 121 121 120 120 120 122 121 121 121 121 120 121 121 122 122 121 121 121 120 121 121 123 121 120 121 121 121 121 121 122 121 121 121 120 120 120 120 123 121 120 121 121 120 121 120 122 121 121 121 121 120 121 120 122 121 120 121 121 121 120 120 123 121 120 121 121 121 121 120 122 121 121 121 120 120 121 121 122 121 120 121 121 121 121 120 123 121 121 121 120 120 122 121 122 121 121 121 121 120 120 120
122 121 121 121 121 120 122 121 123 121 120 120 120 120 120 120 122 121 121 121 121 120 120 120 122 121 121 121 121 120 119 120 123 121 121 120 120 120 122 122 121 120 120 121 121 120 120 120 122 120 119 121 121 120 119 121 122 121 120 121 120 121 121 120 123 121 121 121 121 121 122 121 122 121 121 121 121 121 122 121 122 121 121 121 121 120 121 121 123 121 121 121 121 121 122 120 122 121 120 120 120 120 119 121 122 121 121 121 120 120 121 121 122 121 120 121 121 120 121 119 122 121 120 121 121 121 120 120
122 121 120 121 121 121 117 119 123 121 120 121 121 121 118 121 122 121 121 121 120 121 123 121 122 121 120 121 121 121 122 120 122 121 120 121 121 121 122 121 122 120 120 121 121 121 123 121 123 121 120 120 120 120 122 121 123 121 120 120 120 120 120 119 122 121 121 121 121 120 121 121 122 121 121 121 121 120 121 121 122 121 121 121 121 121 121 120 122 121 121 121 120 120 121 121 122 121 121 121 120 121 121 120 123 121 120 121 121 120 121 120 122 121 121 121 121 121 121 120 122 121 121 121 121 120 120 120
122 121 121 121 121 120 121 120 122 121 121 121 120 120 121 120 122 121 120 121 121 120 120 120 122 121 120 121 121 121 121 120 122 121 120 121 121 120 121 120 123 121 120 121 121 121 121 120 122 121 120 120 120 121 123 121 122 121 120 120 120 120 119 121 123 121 120 120 121 121 120 120 122 121 121 121 121 121 121 121 123 121 120 120 121 121 121 120 123 121 120 121 121 121 121 120 122 121 121 121 121 120 121 121 122 120 120 121 121 121 121 121 122 121 120 121 120 120 121 120 123 122 121 120 120 120 120 121
123 121 121 120 121 121 122 121 122 121 121 121 121 121 122 121 122 121 120 121 121 121 121 120 123 121 121 120 121 120 121 120 122 121 120 121 121 120 118 120 122 121 120 121 121 120 118 121 122 121 120 121 121 120 124 120 122 121 121 121 120 120 120 121 122 122 121 121 121 120 121 121 123 121 120 121 120 121 122 120 122 121 121 121 121 121 122 121 123 121 120 120 120 121 121 121 122 121 121 121 120 120 121 121 122 121 121 121 120 120 121 121 123 122 121 121 121 121 121 121 123 121 120 121 121 121 121 120
122 121 121 121 121 120 121 121 122 121 120 121 121 121 122 121 122 121 120 121 121 120 121 120 122 121 121 121 120 120 121 121 122 121 121 121 121 121 121 121 122 122 121 121 121 121 121 120 122 121 120 121 121 121 121 120 123 121 120 120 121 121 120 120 122 121 120 121 121 121 120 120 122 121 120 121 121 120 120 121 122 121 120 121 121 121 121 120 122 121 120 121 120 121 121 121 122 121 121 121 121 120 120 120 122 122 121 121 120 120 121 121 122 121 120 121 121 121 121 120 122 121 121 121 121 120 121 121
123 121 121 121 121 121 122 120 122 121 120 121 121 121 119 120 122 122 120 121 120 121 121 120 122 121 121 121 121 120 121 121 122 121 121 121 120 120 121 121 123 121 120 120 120 120 121 121 122 121 121 121 121 120 121 121 122 121 121 121 121 121 121 120 123 121 121 121 121 121 122 120 123 121 121 120 121 120 121 121 123 121 121 121 121 121 120 120 123 121 121 121 121 121 122 121 122 121 120 121 121 120 122 120 122 121 121 121 120 120 119 120 122 121 121 121 121 121 122 121 122 121 120 121 121 121 123 121
122 121 121 121 120 120 119 120 123 122 121 121 120 121 120 120 122 121 120 121 121 120 116 120 122 121 121 121 121 120 121 120 122 121 121 121 121 121 122 121 122 121 120 121 121 120 121 121 123 121 121 120 121 121 122 120 122 121 120 121 121 120 122 121 122 121 120 120 120 121 121 121 122 121 120 120 121 121 121 121 123 121 120 120 121 121 121 120 122 121 121 121 121 121 120 121 122 121 120 121 120 120 123 121 123 121 120 121 121 120 119 120 122 121 121 121 121 121 120 121 122 121 120 121 120 120 121 121
123 121 120 121 121 120 121 120 123 121 121 120 120 121 122 120 123 121 120 121 121 121 122 121 122 121 121 121 121 120 122 120 123 121 120 121 121 121 119 120 122 121 121 121 121 120 121 121 123 121 120 120 120 121 121 120 122 121 121 121 120 120 121 120 123 122 120 121 120 121 121 121 123 121 121 121 120 120 121 120 122 121 121 121 121 120 120 120 122 121 120 121 121 121 121 120 122 121 120 121 121 121 120 120 122 121 121 121 120 120 120 120 122 121 120 121 121 120 121 120 122 121 121 121 121 120 121 121
123 121 121 121 121 121 121 121 122 121 121 121 120 120 121 120 122 121 120 121 120 120 121 121 122 122 120 120 121 120 122 121 122 121 121 121 120 120 121 121 122 121 121 121 121 121 120 120 122 121 121 121 121 121 121 120 123 121 120 120 121 121 121 121 123 121 121 120 121 121 122 120 123 121 120 121 120 119 123 121 122 121 121 121 120 120 118 120 122 121 121 121 121 121 120 120 122 121 120 121 121 121 121 120 122 121 121 121 120 120 120 120 122 121 120 121 120 121 122 121 122 121 121 121 121 120 120 120
123 122 121 121 120 121 121 121 123 121 120 120 121 121 121 121 122 120 121 121 121 120 121 121 122 121 120 121 121 121 121 120 122 121 121 121 121 121 121 121 122 121 121 121 120 120 121 120 123 121 121 121 120 120 122 121 122 121 121 121 120 120 120 120 122 122 121 121 121 121 121 121 122 121 120 120 120 119 121 120 122 121 120 121 120 120 120 120 122 121 120 120 121 121 122 120 123 120 120 120 120 120 121 121 122 121 121 121 120 120 121 121 123 121 121 121 120 121 121 120 122 121 121 121 121 121 121 121
122 121 121 121 120 120 123 121 122 121 120 121 121 121 123 121 122 121 121 120 120 121 120 120 123 121 121 120 121 121 120 120 122 121 121 121 121 120 116 120 122 122 121 121 120 120 121 121 122 121 120 121 120 121 121 120 122 121 121 121 121 121 121 121 122 121 120 121 121 121 123 120 123 121 120 120 121 121 122 121 122 121 120 120 121 120 123 120 123 121 120 121 121 121 119 120 122 121 120 121 121 121 120 120 122 121 121 121 121 120 121 121 122 121 121 120 120 119 122 120 123 121 120 121 121 121 121 120
123 122 121 121 121 121 121 121 122 121 120 121 121 121 121 121 123 121 121 121 121 121 121 121 122 121 121 121 121 121 120 121 122 121 120 121 121 121 120 121 122 121 121 121 121 121 120 120 122 121 121 121 121 119 121 119 122 120 120 121 121 121 122 120 122 121 120 121 121 120 120 120 122 122 121 121 121 120 121 121 122 121 121 121 121 120 122 120 122 121 120 121 121 120 117 119 122 121 121 121 120 120 117 120 123 121 121 121 120 121 125 122 123 122 120 121 121 121 124 122 122 121 121 121 120 120 123 122
122 120 121 121 120 120 119 120 122 121 121 121 121 120 120 120 123 121 120 120 120 120 120 119 122 121 121 121 121 120 120 120 123 121 121 121 122 121 121 120 122 122 121 121 121 120 120 121 122 121 121 121 120 120 120 120 122 121 121 121 120 120 122 121 122 121 121 121 120 120 121 120 123 121 120 121 121 121 121 121 122 121 121 121 120 121 123 122 122 121 121 121 120 120 120 120 122 121 120 121 121 120 119 121 122 121 120 121 121 121 122 120 122 121 120 121 120 120 120 120 122 121 121 121 120 120 121 121
123 121 120 121 121 120 120 120 122 121 120 121 121 121 121 120 123 122 121 121 121 121 120 120 122 121 121 121 120 119 121 121 122 121 120 121 121 121 122 120 123 121 121 121 120 121 123 121 122 121 120 120 121 121 123 121 123 121 120 120 121 121 119 121 123 121 121 120 121 121 120 121 122 121 121 121 121 120 122 121 122 121 120 121 121 121 120 120 122 121 121 121 121 120 119 121 122 121 120 120 120 120 118 120 122 121 120 121 121 120 123 120 123 121 120 121 121 121 123 121 123 121 120 121 121 121 122 121
122 121 121 121 121 121 121 120 123 121 120 120 120 120 121 120 122 121 121 121 121 120 121 120 122 122 120 121 120 121 122 120 122 121 121 121 121 121 120 121 122 121 121 121 121 120 120 121 123 121 120 121 121 120 121 120 122 121 121 121 120 120 120 119 122 121 120 120 121 121 122 120 122 121 121 121 120 121 121 121 122 121 121 121 121 120 120 120 122 121 121 121 121 121 120 120 123 121 121 121 121 120 121 120 123 121 121 121 122 120 121 121 122 121 121 121 120 121 121 121 122 120 120 120 120 119 120 120
123 121 120 121 121 121 121 121 123 121 121 121 120 121 121 120 122 121 121 121 120 119 122 119 122 120 121 121 121 120 122 121 122 121 121 121 120 120 121 121 123 121 120 121 121 121 121 120 123 121 120 121 121 121 121 121 122 121 120 121 121 120 120 120 122 121 120 121 121 120 121 121 122 121 121 122 121 120 120 120 122 121 121 121 120 121 120 120 123 121 121 121 121 121 121 121 122 121 121 121 121 119 121 120 122 121 119 121 121 121 122 120 122 121 120 121 121 120 122 120 122 121 121 121 120 120 122 121
121 120 120 121 121 120 120 119 122 121 120 121 120 120 121 121 122 122 120 120 121 120 120 120 123 121 120 121 121 121 120 120 122 121 121 121 120 120 120 120 123 121 120 121 121 121 121 121 122 121 121 121 121 120 121 120 122 121 121 121 120 121 120 121 122 120 121 121 121 121 119 121 123 121 120 120 121 121 121 121 123 122 121 121 121 121 123 121 122 121 121 121 121 121 123 120 122 121 120 121 121 121 125 120 122 121 121 121 121 120 116 119 123 121 120 121 121 120 118 120 122 121 121 121 121 120 116 120
122 121 120 121 121 121 123 121 123 121 120 121 121 121 122 121 123 121 120 121 121 121 122 121 122 121 120 121 121 121 122 121 122 121 121 120 120 121 123 121 122 121 121 121 121 120 118 120 122 121 120 121 121 119 120 120 122 121 120 121 121 121 121 120 123 121 120 121 121 121 123 121 122 121 121 121 121 120 122 121 122 121 120 120 121 121 121 121 122 122 120 121 121 121 120 120 123 121 121 121 120 120 120 121 123 121 120 121 120 121 121 120 123 121 120 121 121 120 120 120 122 121 120 121 121 120 120 120
122 121 121 121 121 120 121 121 122 121 121 121 121 121 122 121 122 120 120 121 121 121 123 122 122 121 121 121 121 121 121 121 122 121 120 121 121 120 119 119 122 121 121 121 120 119 120 120 122 121 121 121 121 120 121 121 123 121 121 121 121 121 123 121 122 122 120 121 121 121 122 120 122 121 120 121 121 120 119 121 122 121 120 121 121 120 120 120 122 121 120 120 121 120 121 120 122 120 120 121 121 121 120 120 121 120 120 120 121 120 121 120 122 121 120 121 121 121 121 120 123 121 120 121 121 121 120 120
123 121 120 121 120 121 120 121 122 121 121 121 121 121 121 121 122 121 120 121 120 120 125 121 123 121 120 121 121 121 118 120 122 121 120 121 121 121 121 120 123 121 121 121 120 120 119 120 123 121 120 121 121 121 120 120 122 121 121 121 120 120 118 120 122 121 120 121 121 121 121 121 122 121 121 121 120 119 122 121 123 121 120 121 121 121 122 120 122 121 121 121 120 120 122 121 122 121 121 121 120 121 122 122 122 122 121 121 120 120 121 121 122 121 121 122 121 121 120 120 122 121 120 121 120 120 120 120
122 121 120 121 121 120 120 120 122 121 121 121 121 121 121 120 122 121 120 121 121 121 121 120 122 121 120 121 121 121 121 120 122 121 120 121 121 120 121 121 123 120 120 121 121 121 121 120 122 121 121 121 120 120 120 120 123 121 120 120 121 121 122 121 123 121 120 121 121 121 121 120 123 121 121 121 121 120 119 120 122 121 121 121 120 121 120 120 122 121 120 121 121 121 121 121 122 121 121 121 121 120 122 121 123 121 120 120 121 121 123 120 122 121 121 121 120 120 120 120 123 122 120 121 121 121 121 121
122 121 121 121 121 120 120 120 122 121 121 121 121 121 120 121 122 121 121 121 120 120 120 120 122 121 120 121 121 121 121 120 123 122 121 121 121 121 121 121 122 122 121 120 121 121 123 121 122 121 120 121 121 120 120 120 122 121 120 120 120 119 120 119 122 121 120 121 121 121 121 120 123 122 121 121 120 120 121 121 123 121 120 121 120 121 122 121 123 121 121 120 121 121 122 121 122 121 121 121 121 121 121 120 122 121 120 121 121 121 120 120 122 122 120 120 121 121 121 121 123 120 120 121 121 121 122 121
122 121 120 121 120 120 124 121 122 121 120 121 121 121 120 120 122 121 121 121 121 121 122 120 122 121 120 120 121 120 122 120 122 121 120 121 121 120 117 119 122 121 120 120 120 121 115 120 122 121 120 121 121 121 122 121 123 121 121 121 122 121 122 121 122 121 120 121 121 121 122 121 121 121 121 121 120 119 122 120 122 121 121 120 120 120 120 120 123 121 120 121 121 121 121 120 123 122 121 121 121 121 121 121 123 121 121 121 120 120 122 121 122 121 121 121 120 120 119 121 122 121 121 121 121 121 118 120
123 121 121 121 121 120 121 120 123 121 120 120 121 121 126 121 122 121 120 121 121 120 124 121 122 121 120 121 121 120 120 120 123 121 120 120 120 120 119 121 122 121 121 121 121 121 120 120 122 121 120 121 121 121 123 121 122 121 120 121 121 121 121 120 122 121 121 121 120 119 118 120 123 121 121 121 121 121 120 121 123 121 121 121 121 121 122 121 122 121 120 121 121 121 120 121 122 120 120 121 121 121 121 121 123 121 121 121 120 120 122 122 122 121 120 120 121 120 121 120 122 121 120 121 121 120 120 120
123 121 120 121 121 121 121 120 122 121 121 121 121 121 121 121 122 121 120 121 120 120 121 121 122 121 121 120 121 121 121 120 122 121 121 121 121 120 121 120 123 121 120 120 121 121 121 121 122 121 121 122 121 120 120 121 123 121 121 120 120 120 120 121 122 121 121 121 120 120 120 120 123 121 120 121 121 121 123 121 122 120 121 121 121 121 121 120 123 121 121 121 121 122 121 121 122 121 121 120 120 119 121 121 122 121 120 120 120 121 121 120 123 121 120 120 120 120 121 121 122 121 121 121 121 120 120 120
123 121 121 120 120 120 122 121 122 121 121 121 120 120 120 120 122 121 120 121 121 121 120 120 122 121 121 121 120 120 120 120 123 121 120 120 120 120 120 121 122 121 120 121 120 120 121 121 122 121 120 120 120 120 123 120 122 121 120 121 120 120 123 121 122 121 120 121 121 120 118 120 123 121 121 121 121 121 120 121 123 121 120 121 121 121 121 120 122 121 120 121 121 120 122 121 122 121 120 121 120 120 122 120 122 120 120 121 121 121 121 120 122 121 120 121 121 121 121 120 122 121 121 121 121 120 121 121
122 121 120 120 120 120 120 120 123 121 121 121 121 121 121 120 122 121 121 121 121 120 121 121 122 120 120 120 121 120 121 121 122 121 121 121 121 121 121 120 122 121 120 121 121 119 120 120 123 121 121 121 121 121 122 122 122 121 121 121 121 120 121 120 123 122 121 120 120 119 122 121 122 121 120 121 120 120 120 120 122 121 120 121 121 121 121 120 123 122 120 121 121 120 121 121 122 121 121 121 121 121 121 120 123 121 120 120 120 120 120 120 122 121 120 120 120 121 122 121 122 122 121 121 121 121 120 120
123 121 120 121 121 121 121 121 122 121 121 121 121 121 120 120 123 121 121 121 122 120 121 120 122 121 121 122 121 119 121 119 123 121 120 121 121 120 122 121 122 120 120 121 121 121 119 121 122 121 121 121 122 120 120 120 122 121 120 121 125 122 122 121 122 121 120 119 120 119 120 120 123 122 121 120 115 120 121 121 122 121 120 122 122 121 122 120 122 121 120 122 121 120 121 121 122 120 119 120 121 121 121 120 123 122 120 120 118 121 122 121 122 120 119 121 123 121 121 121 122 121 122 122 123 120 120 120
123 121 121 119 121 121 121 120 122 121 120 124 121 120 121 121 122 121 121 123 121 121 121 121 123 122 123 120 124 123 124 122 123 121 122 122 123 121 120 119 121 120 119 122 123 119 119 120 122 120 117 112 115 120 121 120 121 120 119 118 102 116 120 119 122 120 120 123 124 121 121 119 122 121 122 122 134 123 122 121 123 122 120 125 131 124 122 120 123 121 121 120 120 122 121 121 122 120 117 116 115 118 121 120 123 122 120 133 117 121 122 121 122 120 122 125 121 119 121 120 123 121 127 119 121 120 121 121
122 121 125 110 123 120 121 121 122 120 118 123 120 120 120 119 123 121 120 129 122 121 120 120 123 121 118 125 129 124 121 119 122 121 117 114 124 119 120 120 122 121 119 122 118 119 121 121 122 121 122 122 119 121 121 122 123 121 121 122 119 120 122 121 123 122 121 121 119 120 120 120 122 121 122 122 121 121 122 122 122 121 122 122 122 121 120 119 123 121 121 122 121 121 120 119 123 121 121 122 121 121 121 121 123 121 120 122 117 121 121 121 122 121 121 124 119 122 121 120 122 121 120 120 122 121 121 121
122 121 119 113 128 120 121 121 123 122 122 124 121 120 121 121 123 122 122 123 124 120 121 121 123 122 122 125 129 121 121 120 122 120 119 118 110 120 120 121 122 120 119 115 112 120 119 120 122 121 121 121 120 123 122 121 122 121 120 122 125 117 121 120 123 121 121 122 123 123 122 121 122 121 120 123 119 120 120 120 122 121 123 124 122 121 121 120 123 122 121 121 127 123 123 122 122 122 122 123 122 121 121 120 123 121 120 121 117 122 123 122 122 120 120 120 121 120 119 119 121 121 120 119 119 119 119 120
122 121 117 116 118 118 119 121 122 120 119 125 116 116 122 121 123 122 123 127 123 122 123 121 123 121 123 125 126 123 122 121 123 122 120 116 119 122 119 120 123 121 120 118 116 122 119 121 122 121 120 120 120 120 123 121 122 121 120 121 122 120 128 121 122 121 120 122 123 121 123 122 122 121 120 120 118 119 121 120 122 121 121 121 120 119 118 120 122 121 120 121 120 121 117 120 122 121 120 122 122 121 113 118 123 121 120 120 122 121 123 122 123 121 120 121 121 122 123 122 122 121 120 120 121 121 119 120
121 121 120 121 120 119 121 119 123 121 120 120 120 121 129 121 123 121 121 121 120 121 124 122 122 121 121 121 120 121 121 120 122 121 121 121 121 120 121 120 122 121 121 121 120 120 118 121 123 121 120 120 121 120 118 120 123 121 121 121 121 121 121 120 122 121 121 121 121 121 121 120 123 122 120 120 121 120 122 122 122 122 120 121 121 120 122 121 122 121 120 121 121 121 120 119 122 122 121 120 120 120 120 119 122 121 121 121 121 120 120 121 122 121 120 121 121 121 122 121 122 120 120 121 120 121 123 121
123 121 120 121 121 121 121 121 122 120 120 121 120 119 120 120 122 121 121 122 121 121 121 120 122 121 120 122 120 119 121 119 122 121 121 120 122 121 122 120 122 122 121 121 122 122 122 122 122 121 121 121 121 120 119 120 122 121 120 120 120 120 120 120 123 122 120 121 120 121 121 120 123 121 120 121 120 120 122 121 122 121 121 123 124 121 121 120 122 121 120 122 120 121 121 120 122 122 121 115 119 121 122 121 122 121 120 120 120 120 121 120 122 121 121 122 122 120 121 121 122 121 120 122 120 120 120 120
123 122 121 121 120 121 121 121 122 121 121 121 120 121 121 121 122 121 121 121 122 121 121 121 122 122 120 121 121 121 121 121 122 121 120 121 121 122 122 121 122 121 120 120 119 118 118 119 122 121 120 120 117 120 121 120 123 121 120 123 123 121 122 122 122 121 121 123 127 121 120 120 122 121 121 116 126 121 121 120 123 121 121 120 108 120 121 121 122 120 119 121 117 121 121 120 122 121 119 122 115 118 121 121 123 121 121 120 123 120 121 121 122 121 123 122 124 123 122 120 122 121 121 121 124 122 120 120
123 121 120 121 123 121 120 120 123 122 120 121 117 120 120 121 122 121 121 121 123 120 121 120 122 121 120 121 121 120 123 121 122 121 121 121 120 120 122 121 122 120 119 122 119 120 121 120 122 121 119 122 119 120 121 121 122 121 120 119 125 121 120 119 123 122 123 120 119 121 120 120 123 121 120 122 119 121 121 121 122 121 120 117 123 121 121 120 122 121 120 122 123 121 119 120 122 120 120 121 117 122 121 121 122 121 121 121 119 121 122 121 122 121 119 122 120 120 122 121 122 121 120 121 132 122 124 121
122 121 120 120 120 121 121 120 123 122 121 121 111 121 120 120 123 121 123 121 120 121 120 120 121 120 119 122 120 119 115 117 123 121 118 123 122 119 124 122 123 122 121 116 121 121 122 122 122 121 125 119 112 121 121 120 122 120 122 123 130 123 122 122 123 120 119 121 125 121 122 122 123 122 120 120 113 119 121 119 122 121 119 121 119 118 119 119 122 121 120 121 118 121 120 120 123 122 121 122 122 123 121 120 122 121 120 123 127 122 121 121 123 121 118 114 131 122 122 122 123 121 120 129 111 120 122 121
122 120 124 125 122 121 121 120 121 121 123 111 119 121 120 119 123 121 121 109 121 121 124 123 121 121 121 128 120 119 120 118 122 121 118 126 122 113 118 119 123 121 118 124 123 122 121 120 123 121 119 119 118 127 122 120 122 120 119 113 123 122 121 120 123 121 122 124 113 116 122 122 123 122 121 123 118 121 122 121 122 121 121 122 128 119 120 120 122 121 122 113 130 122 120 119 122 121 123 124 103 121 121 120 122 121 120 123 118 120 120 120 121 120 118 123 115 120 120 120 123 122 121 123 143 124 122 121
122 121 122 120 117 118 121 121 122 121 120 124 117 120 121 121 123 121 119 114 122 120 121 122 122 122 121 132 131 122 120 119 123 121 123 131 118 122 122 122 121 120 123 98 102 118 122 119 123 122 122 126 113 121 122 121 123 121 119 123 127 122 121 121 123 122 119 118 120 119 121 120 122 120 118 121 126 120 121 121 122 120 120 117 103 120 121 121 122 121 122 129 119 120 119 119 123 122 123 130 146 127 124 121 122 121 120 125 127 125 121 121 122 121 119 104 107 114 117 119 122 121 123 121 116 117 121 120
122 120 118 121 114 119 121 119 122 122 121 127 135 122 122 121 122 121 121 128 131 122 121 121 123 121 120 100 96 120 121 121 122 122 123 129 114 122 123 121 122 121 119 127 119 117 122 122 122 120 120 124 138 122 123 120 123 121 121 114 108 119 121 122 122 122 121 119 123 119 118 120 121 120 118 130 123 123 118 120 123 121 122 131 121 122 122 121 122 121 127 113 102 119 121 119 122 121 120 112 124 125 122 120 122 121 117 114 149 123 120 119 122 120 118 127 118 120 121 121 123 121 119 119 120 120 122 121
122 121 120 134 119 122 122 121 122 121 123 128 116 121 122 122 122 122 126 114 127 117 122 122 122 121 123 123 138 118 121 122 122 120 122 125 96 120 120 119 121 119 118 117 112 122 120 120 123 122 117 120 126 124 120 119 123 122 116 122 121 116 120 120 122 122 121 120 118 120 121 121 123 121 122 128 139 123 123 122 122 120 121 126 110 123 121 120 122 121 119 113 124 122 123 122 123 122 125 121 124 124 123 121 123 123 125 119 108 121 121 120 122 121 123 124 124 120 118 119 122 121 120 123 120 118 116 120
122 121 119 122 121 120 121 120 122 121 119 120 121 124 122 121 123 121 121 121 119 119 124 123 122 121 120 120 133 119 122 120 122 121 121 121 116 119 120 119 122 120 120 122 121 121 120 120 122 121 121 121 124 122 121 120 122 121 120 119 123 121 121 121 123 121 123 123 115 121 122 121 122 121 121 122 124 122 123 120 123 121 118 118 121 120 120 121 122 121 115 119 123 121 118 121 123 121 125 125 129 121 121 120 122 121 122 117 111 121 121 121 122 121 119 123 121 121 122 120 123 122 119 118 125 122 122 120
122 121 120 126 123 119 120 120 122 121 120 113 120 119 119 121 123 121 121 122 122 121 121 121 122 121 123 132 129 121 122 121 122 121 121 123 109 120 123 121 122 121 118 101 114 122 123 122 122 121 122 124 123 121 117 120 123 120 120 121 130 120 119 121 123 122 121 121 111 122 124 123 123 123 121 124 122 122 123 122 121 121 121 130 124 121 118 119 123 121 122 121 134 122 121 120 122 120 119 104 121 117 118 118 122 121 120 115 91 116 122 120 122 121 121 126 120 118 122 121 122 121 121 127 118 122 121 121
122 121 119 121 139 126 122 121 123 122 120 121 108 121 122 121 122 121 118 119 115 120 120 120 123 120 120 129 131 120 122 121 122 121 123 125 119 119 119 120 122 121 123 119 117 119 121 121 123 121 120 123 131 123 122 121 123 121 120 119 124 122 123 121 122 121 121 120 113 121 123 121 122 121 119 121 119 120 121 121 122 121 120 120 127 121 118 119 122 121 121 120 117 120 116 120 122 121 120 121 126 121 122 121 122 120 120 122 121 121 121 120 122 121 121 121 121 121 122 120 122 121 120 122 123 122 124 121
122 121 120 120 118 118 121 119 122 121 122 121 118 120 121 121 122 121 123 121 116 119 121 120 123 121 118 121 134 123 121 121 123 121 113 121 121 121 121 120 122 121 121 124 121 120 120 120 122 121 124 116 122 121 119 121 122 121 123 122 114 119 121 120 123 121 121 126 119 119 122 121 123 121 119 122 122 119 122 120 122 121 119 121 129 121 121 121 122 122 121 120 125 122 124 121 122 121 120 121 118 119 121 119 122 121 121 121 119 122 118 119 123 121 121 121 125 124 122 122 122 121 121 121 122 118 120 121
122 120 120 122 119 117 118 119 122 121 120 117 118 121 123 122 123 121 120 121 123 123 123 122 122 121 120 119 134 123 121 121 122 121 120 123 109 121 120 118 122 121 121 121 103 118 121 121 122 121 124 125 123 120 122 121 122 121 119 119 126 121 120 120 122 121 119 124 129 119 122 121 122 121 119 112 107 121 122 121 122 121 121 121 121 122 120 120 122 121 120 122 120 122 121 120 122 120 120 123 122 121 120 119 122 121 120 121 132 122 121 121 122 121 120 121 121 120 121 120 123 122 121 121 121 121 121 121
123 121 121 125 110 119 122 121 121 119 122 126 119 121 122 119 123 121 120 110 137 122 123 122 122 122 118 115 134 122 120 120 122 122 119 120 119 119 116 118 122 121 123 121 118 119 121 120 123 121 121 123 120 120 123 121 122 120 121 123 118 119 123 121 121 121 120 127 116 118 118 119 123 121 121 121 122 122 122 121 123 121 120 113 123 124 122 121 123 121 120 110 123 124 122 121 123 121 120 129 124 121 120 120 123 121 120 120 106 121 123 122 122 121 122 123 118 120 122 121 121 120 120 123 130 118 121 120
122 121 121 123 128 119 122 120 122 121 120 123 120 120 118 120 122 121 119 122 120 121 121 120 122 121 122 119 119 122 121 120 122 121 122 125 124 122 120 120 122 121 117 118 121 118 121 120 122 121 124 124 119 120 120 121 122 121 119 121 121 121 121 121 123 122 117 120 121 123 124 121 122 120 121 121 126 124 122 120 122 120 121 121 123 117 121 120 122 122 121 120 110 119 122 120 123 121 121 121 120 120 120 120 123 121 120 119 120 119 119 121 122 121 121 126 117 119 120 121 122 121 120 121 115 123 124 121
122 121 122 119 138 123 119 120 123 121 120 121 128 122 120 120 123 121 120 112 110 121 121 121 123 122 121 123 108 119 121 120 122 121 121 123 132 120 123 121 123 121 120 123 113 120 122 121 122 121 120 115 115 121 120 120 122 121 119 123 124 121 122 121 123 121 120 121 125 122 123 122 122 121 119 122 117 121 119 119 122 121 121 122 126 119 120 119 123 122 125 124 120 120 121 120 122 121 121 119 113 121 122 121 123 120 119 118 134 122 121 121 123 121 121 121 132 123 122 123 121 120 118 120 119 120 119 119
122 122 120 118 112 119 120 119 122 122 120 120 118 117 121 120 122 122 122 122 119 121 121 122 123 121 120 121 116 120 120 120 122 121 121 122 130 120 121 122 122 121 120 120 128 119 122 121 123 121 120 119 119 122 122 121 123 121 120 121 118 123 123 122 122 121 121 121 120 122 121 120 122 121 121 122 122 121 120 120 122 121 120 123 121 120 119 120 121 121 120 120 120 123 120 119 123 121 121 119 123 122 121 120 122 120 119 122 127 119 121 120 123 122 120 121 119 121 122 121 122 121 120 121 116 120 122 121
122 121 123 125 132 122 121 121 122 121 123 115 108 119 121 120 123 122 121 122 121 121 122 121 122 122 116 124 122 119 120 120 122 121 120 121 120 120 120 120 122 120 122 122 122 121 121 120 123 120 120 128 126 121 121 121 122 121 120 122 122 121 120 120 122 121 121 104 103 120 121 119 123 121 122 110 122 120 120 120 123 122 121 130 129 121 121 121 123 121 120 123 121 120 121 120 123 122 121 125 124 121 122 121 123 121 119 121 120 121 121 121 123 122 121 120 118 122 121 121 122 120 118 123 115 117 120 120
122 122 123 122 124 120 121 121 123 122 123 122 128 122 122 121 122 121 121 121 126 121 121 121 122 121 120 128 96 120 122 120 123 121 119 112 122 123 122 121 123 122 120 123 131 120 119 121 122 121 119 118 120 120 122 120 122 121 120 119 121 121 120 119 123 121 120 124 122 122 122 122 123 122 121 122 120 121 120 120 122 122 121 119 123 119 120 119 122 121 121 118 120 120 121 120 123 121 120 120 111 118 122 121 123 121 120 120 114 123 123 121 122 121 122 125 125 123 121 121 122 121 120 119 122 120 120 121
122 120 120 120 124 119 120 119 122 121 121 121 123 119 121 120 122 121 121 125 124 122 122 120 123 121 120 121 115 123 123 121 123 121 120 120 136 122 121 120 123 121 121 121 124 122 121 122 122 121 119 120 117 120 121 121 122 121 120 119 119 119 120 120 122 123 122 122 123 120 122 120 122 122 125 126 132 122 119 120 123 121 120 119 118 122 121 120 123 121 123 125 116 120 121 120 122 121 121 120 115 121 122 121 123 121 114 121 133 123 122 121 123 121 121 120 119 122 122 121 123 122 121 120 120 120 121 121
122 121 121 120 119 122 121 120 123 121 120 121 121 121 122 121 123 121 121 121 121 120 122 121 122 121 122 122 122 120 120 120 122 122 121 121 123 121 121 120 122 121 120 120 114 120 120 120 122 120 120 120 121 122 121 120 122 121 120 121 120 120 120 120 123 122 121 121 122 120 121 121 123 121 121 126 125 122 122 121 123 121 121 128 122 125 123 122 121 120 119 116 112 118 119 119 122 121 119 110 127 118 120 120 122 121 121 110 120 121 122 121 123 121 121 128 120 121 121 121 123 121 121 126 119 122 122 121
122 120 120 122 121 121 121 120 122 121 121 123 127 121 121 121 123 121 121 121 123 121 122 122 121 120 120 121 115 121 121 119 122 121 121 121 119 122 121 121 122 120 120 120 119 118 119 120 122 122 121 121 121 119 119 120 122 121 121 121 121 122 124 121 122 122 121 124 125 122 123 122 122 120 119 124 117 118 122 120 122 121 121 118 121 121 119 119 123 121 122 119 129 122 121 120 123 121 120 124 107 120 121 120 122 121 121 121 123 120 121 121 123 121 120 121 117 122 122 122 122 121 119 122 128 121 121 121
121 120 119 119 134 121 120 120 122 120 120 120 99 122 121 120 122 122 123 127 125 121 121 121 122 121 120 126 119 120 120 120 122 121 121 117 124 119 122 122 122 121 121 123 121 122 121 120 123 121 120 122 127 124 122 121 122 121 120 118 113 119 119 120 122 122 121 126 119 120 122 121 122 121 121 121 122 120 121 120 123 121 120 118 123 123 121 120 122 121 120 121 117 121 120 120 122 121 121 121 122 118 122 121 123 121 120 121 123 121 120 119 122 121 121 121 118 121 120 120 123 121 120 121 121 122 122 121
123 121 120 121 123 121 121 121 122 121 121 121 119 120 121 121 123 121 121 121 121 121 119 120 123 121 120 121 121 122 122 122 122 121 121 121 121 120 122 119 123 121 120 120 120 120 121 120 122 121 120 123 122 120 119 121 122 121 121 121 125 121 120 120 122 120 118 116 118 121 121 120 123 121 121 120 120 121 122 121 123 121 125 124 121 121 121 121 123 122 120 122 119 121 122 121 122 121 114 120 125 120 120 120 122 120 121 121 126 122 120 119 122 121 121 121 119 121 121 121 123 122 121 123 120 121 122 120
122 121 121 121 118 121 120 120 122 121 121 119 117 122 121 121 122 121 120 125 120 120 122 120 122 121 119 115 147 119 121 120 123 122 121 119 117 119 121 119 123 122 121 120 125 121 120 121 123 121 123 122 112 121 122 121 122 121 120 126 115 119 120 119 122 120 121 127 115 120 119 121 122 120 118 100 119 122 121 120 123 121 120 122 126 123 123 121 122 121 121 122 120 119 121 121 122 121 120 123 121 121 121 120 123 122 120 122 121 120 122 121 123 121 120 118 122 121 121 120 122 121 121 121 121 121 121 120
123 121 120 121 122 122 122 121 123 121 120 121 122 122 121 120 122 121 121 121 121 119 119 120 123 121 120 121 118 122 122 121 122 121 120 120 121 119 121 120 123 121 121 122 127 122 123 121 123 121 121 121 121 121 121 121 123 121 120 121 117 120 121 121 122 121 121 121 119 120 121 120 122 121 121 121 121 119 119 120 122 121 121 119 121 121 122 121 123 121 121 127 126 122 121 121 123 121 120 123 116 120 121 120 122 121 120 112 116 121 121 121 122 121 120 109 114 121 120 120 122 121 120 126 124 122 121 120
122 121 120 125 123 121 121 120 122 121 120 123 121 119 121 121 123 121 120 123 127 122 121 121 123 121 120 120 119 121 121 121 122 120 121 120 102 122 121 121 123 122 122 126 142 121 120 119 122 121 119 118 121 120 120 120 122 121 120 112 110 119 121 121 122 120 120 122 129 120 121 120 122 121 120 122 121 121 121 120 122 121 121 123 115 120 120 120 122 121 120 119 118 121 122 120 122 121 121 119 131 121 121 120 122 121 120 121 118 120 120 120 122 121 121 121 119 122 122 121 123 121 120 121 120 121 123 121
122 122 121 121 120 120 122 120 122 121 121 123 124 120 123 123 122 121 120 114 119 120 119 120 122 122 120 122 119 121 119 120 122 121 120 121 118 119 119 120 122 121 120 121 129 120 121 120 122 121 121 119 120 121 121 121 123 122 122 120 119 120 121 121 122 121 121 123 121 121 121 120 123 122 120 118 121 121 123 122 121 120 121 121 120 121 121 120 123 121 120 125 122 122 122 121 122 121 120 130 136 119 120 120 122 121 118 100 113 120 121 120 122 121 124 123 124 122 120 120 122 121 120 120 105 118 120 120
123 121 120 124 127 122 122 121 122 120 119 120 133 121 120 120 122 121 120 122 122 121 121 120 123 122 120 118 117 120 120 120 123 121 120 122 128 122 122 121 123 121 120 122 121 121 121 120 122 121 120 121 118 120 122 121 122 121 120 121 119 121 121 121 122 121 121 123 125 121 122 122 123 122 120 120 120 122 121 120 123 122 121 118 119 121 121 121 122 120 120 121 115 119 120 119 122 121 121 121 125 120 120 120 123 121 121 121 124 122 121 121 122 121 121 121 118 120 120 120 123 121 121 123 120 122 122 121
123 121 120 121 121 121 122 121 122 121 121 118 120 119 122 121 123 121 120 120 120 120 121 119 122 121 121 121 121 121 121 120 122 121 120 120 121 121 120 120 122 121 121 122 121 121 121 121 122 121 120 121 121 120 120 119 122 121 120 121 120 120 121 120 123 121 121 121 122 121 120 120 122 121 121 120 115 119 121 121 122 120 120 120 118 120 121 119 122 120 120 123 136 121 120 120 123 121 120 119 119 121 123 122 122 121 120 121 119 122 120 119 122 121 121 122 127 121 122 121 122 121 121 120 122 121 120 120
123 122 121 121 99 119 121 121 122 121 121 121 130 120 121 121 122 121 120 121 123 121 121 120 122 121 120 121 122 120 122 121 122 121 121 121 121 120 122 121 122 121 120 121 120 120 121 121 122 121 121 121 121 121 121 120 122 121 121 121 121 120 121 120 122 121 121 121 120 120 121 120 124 121 120 121 121 121 122 122 122 121 121 122 131 121 120 120 122 121 120 124 114 119 120 119 122 121 121 117 112 120 121 121 122 121 121 121 124 121 118 119 122 121 120 120 122 121 122 121 123 121 120 121 121 121 122 120
123 121 121 121 122 121 122 121 122 121 121 121 121 121 122 121 122 121 121 121 120 120 121 120 122 121 120 121 121 121 121 120 122 121 121 120 122 120 120 120 122 121 121 121 118 120 122 121 122 121 121 121 121 120 121 120 122 121 121 121 121 120 119 121 123 121 120 121 121 121 120 120 123 121 121 122 121 120 120 121 122 121 120 121 120 121 121 119 122 121 120 121 121 120 121 120 123 121 120 121 121 121 121 120 122 121 120 121 121 121 122 120 123 121 121 121 121 121 124 122 122 121 120 121 120 121 121 121
122 121 121 121 121 119 115 121 122 120 120 121 121 121 119 120 122 120 120 121 121 120 122 120 122 121 121 121 121 120 123 121 122 121 120 121 120 120 121 121 122 121 121 121 120 120 121 120 122 121 121 121 120 120 120 121 122 121 121 124 120 120 120 120 123 121 120 116 120 120 121 120 123 121 121 119 121 121 122 121 123 121 121 121 121 121 125 121 122 121 121 121 120 120 122 121 123 121 120 121 121 120 115 121 123 121 121 121 120 120 120 120 122 120 120 121 121 121 122 121 122 121 121 121 120 120 123 121
122 121 121 121 120 120 120 119 122 121 119 121 120 120 119 119 122 121 121 121 120 120 115 120 122 121 121 121 121 120 123 121 123 121 120 121 121 121 123 121 123 121 120 121 121 121 121 121 122 121 121 122 121 120 120 121 122 121 119 121 121 121 123 120 121 121 121 121 121 120 121 121 122 121 121 121 120 120 124 121 123 122 120 121 121 121 120 120 122 121 120 121 121 120 121 121 122 121 120 121 121 121 121 121 122 122 121 121 121 120 121 120 122 121 120 121 121 121 121 121 123 121 120 120 121 120 118 120
122 121 121 121 121 121 120 121 123 122 120 120 121 121 122 121 122 121 120 120 120 120 122 121 122 121 120 121 121 120 121 120 123 121 121 121 121 121 120 121 122 121 120 121 121 120 121 120 122 121 121 121 121 120 122 120 123 121 121 121 121 121 119 121 122 121 120 121 121 121 122 121 122 121 120 120 120 121 122 120 122 121 120 120 120 121 122 121 122 120 121 121 121 120 121 120 122 121 121 121 121 120 120 120 122 122 121 121 120 121 121 120 123 121 121 120 121 121 122 121 122 121 121 121 120 119 121 120
122 122 121 121 120 120 121 120 122 121 121 121 121 120 121 121 122 120 121 121 121 120 120 120 123 121 120 121 121 121 121 120 122 121 120 121 121 121 121 120 123 121 120 121 121 121 121 121 123 121 120 121 121 121 121 120 122 121 120 120 120 120 119 120 122 121 120 121 121 120 121 120 123 122 120 120 121 120 122 121 122 121 120 121 121 121 121 120 122 121 120 121 121 121 120 120 122 121 120 121 121 120 120 121 122 121 120 121 121 121 121 120 123 121 120 121 121 121 121 120 122 121 121 121 120 120 122 120
122 120 120 121 121 120 118 120 122 121 120 121 121 121 121 120 122 121 120 121 121 121 121 120 122 121 120 121 120 120 121 121 122 121 121 121 120 120 121 121 122 121 121 120 120 120 121 121 122 121 121 121 121 121 121 120 122 121 121 121 121 121 121 121 122 121 120 120 120 120 121 120 122 121 121 121 121 120 121 121 123 121 121 120 121 121 121 121 122 121 120 121 121 121 121 121 122 121 121 121 121 120 120 120 122 121 120 121 121 121 121 120 123 121 121 121 120 121 121 120 122 121 120 121 121 121 121 120
123 122 120 120 121 121 121 120 122 121 121 121 121 120 121 120 122 121 121 121 120 120 120 121 123 121 121 121 120 121 121 121 122 121 121 121 120 120 121 121 123 121 120 120 121 121 121 120 122 121 120 121 121 120 122 121 122 121 120 121 120 119 122 120 122 121 121 121 120 120 121 121 123 121 120 121 121 121 119 120 122 121 120 121 121 120 120 120 123 121 120 121 121 121 121 120 123 121 120 121 121 121 121 120 123 122 121 121 120 120 121 121 122 121 121 121 120 121 121 121 122 121 121 120 121 121 121 121
123 121 121 120 121 120 121 120 122 121 120 121 120 120 121 120 123 121 121 121 120 120 121 121 122 121 121 121 121 120 121 120 123 121 121 121 121 121 121 120 122 121 121 121 121 120 121 121 122 121 121 121 121 120 120 120 122 121 121 121 121 120 121 120 122 122 120 121 121 121 121 120 123 122 120 120 121 121 121 120 123 120 120 120 120 121 121 121 122 120 120 121 121 121 121 120 122 121 121 121 121 120 120 121 122 121 121 121 121 120 121 120 122 121 120 121 121 121 121 120 122 121 120 121 121 120 121 120
122 121 121 121 121 120 121 121 122 121 121 121 120 120 121 120 123 121 120 120 120 121 121 120 123 121 120 120 120 120 121 121 123 121 120 121 121 121 121 121 123 121 120 121 121 121 121 120 122 121 121 121 120 120 120 120 122 120 120 121 121 121 120 120 122 121 120 121 121 120 120 120 122 121 121 121 120 120 121 121 123 121 120 121 121 121 121 120 122 121 120 121 121 121 121 120 122 121 121 121 120 120 121 121 122 121 120 121 121 121 121 120 122 121 121 121 121 120 121 121 122 121 121 121 121 120 121 121
122 121 121 121 121 120 121 121 122 121 120 121 121 121 121 121 122 121 121 121 121 121 121 120 122 121 121 121 121 120 121 120 122 120 121 121 121 120 121 120 123 121 120 121 120 120 121 120 122 121 120 120 121 120 121 120 123 121 120 121 121 121 120 120 123 122 120 121 120 121 121 121 122 121 121 121 120 120 121 121 123 122 121 120 121 121 121 121 123 121 120 121 121 121 121 120 122 121 120 121 121 120 120 120 122 121 121 121 121 121 120 120 122 121 120 121 121 121 121 121 123 121 120 121 121 121 121 120
122 122 121 121 121 120 121 121 122 121 120 121 121 120 121 121 122 121 120 121 120 121 121 121 122 121 120 121 120 121 121 121 122 121 120 121 121 121 121 120 123 122 120 121 120 120 121 120 122 121 121 121 120 120 120 120 123 121 120 121 121 121 121 120 122 121 120 121 121 121 120 121 122 121 120 121 121 121 121 120 123 121 120 120 121 121 121 120 123 121 120 120 121 120 121 121 122 121 121 121 121 120 121 121 122 121 121 121 120 121 121 121 123 122 120 121 121 121 121 120 122 122 121 121 121 121 121 121
122 121 121 121 121 120 121 120 122 121 120 121 120 121 121 120 122 121 120 120 121 120 121 120 121 120 120 121 121 120 120 120 122 121 120 121 121 121 120 120 123 121 120 120 120 121 121 120 123 121 120 120 120 121 121 121 123 121 120 120 121 121 121 120 123 121 121 121 121 121 121 120 122 122 121 121 120 120 121 121 122 121 121 121 121 120 120 120 122 121 120 121 120 121 120 120 122 121 120 121 121 120 120 121 122 121 121 121 121 120 120 120 122 122 120 121 121 121 121 120 122 121 120 121 121 120 121 121
122 121 120 121 121 121 121 120 122 121 121 121 121 120 120 120 123 121 121 121 121 121 120 119 122 121 121 121 120 121 121 121 123 121 120 121 121 121 121 120 123 121 121 121 120 120 121 121 122 121 121 121 121 120 120 120 122 121 120 121 121 120 120 120 122 121 120 121 121 121 121 120 122 121 121 121 121 121 121 120 122 121 121 121 120 120 121 120 122 121 120 121 121 120 120 120 123 121 120 121 121 121 121 120 123 121 121 121 120 121 121 121 122 121 121 121 121 120 120 120 123 121 121 120 120 120 121 121
122 120 121 121 121 121 121 121 122 121 121 121 120 121 121 121 122 121 120 121 120 120 120 120 122 121 121 121 120 120 120 120 122 121 121 121 120 120 121 121 123 121 120 121 121 121 121 120 122 121 120 121 120 120 120 120 122 121 121 121 121 120 121 121 122 121 120 121 121 120 121 120 122 121 120 121 121 121 121 121 122 121 121 121 121 121 120 121 123 121 120 120 121 121 121 120 122 120 120 121 121 121 121 120 123 121 120 121 121 121 121 120 122 120 120 121 121 121 121 120 122 121 121 121 120 121 121 121
122 121 120 121 121 121 121 120 122 121 121 121 121 120 121 120 123 121 120 121 121 121 121 120 122 121 121 122 121 120 121 121 123 121 120 121 121 121 121 120 122 121 120 121 120 120 121 121 122 121 120 120 120 120 121 120 123 121 120 121 120 120 120 120 122 121 120 121 121 121 121 120 122 121 121 121 121 120 121 120 122 120 120 121 121 121 120 120 123 121 120 121 121 120 121 120 122 121 121 121 121 120 121 121 122 122 121 121 121 121 121 121 122 121 121 121 120 120 121 121 122 121 121 121 121 120 120 120
122 121 121 121 120 121 121 120 123 121 121 120 120 120 121 120 122 121 120 121 121 121 121 120 123 121 120 121 121 121 121 121 123 121 120 121 121 121 121 120 122 121 121 121 121 120 121 121 122 121 120 121 121 121 121 120 122 121 121 121 120 120 121 121 122 121 121 121 121 120 120 121 122 121 120 121 121 120 120 120 122 121 120 121 121 121 121 120 123 121 120 121 120 121 121 120 122 121 121 121 121 120 121 120 123 121 120 120 120 120 121 120 122 121 120 121 121 121 121 121 122 121 121 121 121 120 121 121
123 121 120 121 121 121 121 120 122 121 121 121 121 120 121 120 122 121 120 121 121 121 121 120 122 121 120 121 121 121 121 120 122 121 120 121 120 120 121 121 122 121 120 121 121 121 121 120 123 121 121 121 121 121 121 120 122 121 120 120 120 121 121 121 122 121 120 121 121 121 121 120 122 121 120 120 121 120 121 121 123 121 120 121 121 121 121 120 122 121 121 121 121 120 121 121 122 121 121 121 121 120 121 121 122 121 121 121 121 121 121 120 122 121 121 121 120 121 121 121 122 121 121 121 121 120 121 120
123 121 120 121 121 121 121 120 122 121 121 121 121 120 121 120 122 121 120 120 120 120 121 120 122 121 120 121 121 121 121 120 122 122 120 121 121 121 121 120 122 121 121 121 121 120 120 120 122 121 120 121 121 121 121 119 122 120 121 121 121 120 121 120 123 121 120 120 120 120 121 120 123 121 121 120 120 120 121 121 122 120 120 121 121 121 121 120 123 122 121 120 121 121 121 121 122 121 120 121 120 121 121 120 122 121 121 121 121 120 121 121 123 121 121 121 121 121 121 120 122 121 121 121 120 120 121 121
122 121 120 121 121 121 120 120 122 121 121 121 121 121 121 120 122 121 121 121 121 121 121 121 122 121 121 121 121 120 121 120 122 121 121 121 121 120 120 121 123 121 120 121 121 121 121 120 122 120 121 121 121 121 121 121 122 121 120 120 121 120 121 121 122 122 120 121 120 121 121 121 122 121 121 120 120 120 121 121 123 122 120 120 121 120 121 120 123 121 120 121 121 121 121 120 123 121 121 121 121 121 121 121 122 121 121 121 120 120 120 120 122 121 121 121 121 120 121 121 122 121 120 121 121 121 121 120
122 121 120 121 121 121 120 120 123 121 120 121 121 121 121 120 123 121 121 121 120 120 120 120 122 121 121 121 121 120 121 121 122 121 121 121 121 120 121 120 122 121 121 121 121 120 121 121 122 121 120 121 121 121 121 120 123 121 121 121 121 120 121 121 122 121 120 121 121 120 121 120 122 121 120 121 121 121 121 120 122 121 121 121 121 121 121 120 122 121 121 121 120 120 121 120 123 121 120 120 121 120 121 121 122 121 121 121 121 121 120 120 122 121 121 122 121 120 121 121 123 121 121 121 121 121 120 121
123 121 121 121 121 121 121 120 122 121 120 121 121 121 121 120 122 121 120 120 120 120 121 120 122 122 121 121 121 121 121 121 123 121 121 121 120 121 121 121 122 121 120 121 121 121 121 120 122 121 121 121 121 120 121 121 122 121 120 121 120 120 121 121 123 121 121 121 120 121 121 121 122 121 121 120 121 120 121 121 121 121 120 121 120 120 121 120 123 121 120 120 120 120 121 121 123 122 121 120 121 120 121 120 123 121 121 121 120 121 121 121 122 121 121 121 121 120 121 120 123 121 120 121 121 121 121 120
122 121 120 121 121 120 121 120 122 121 120 121 121 121 120 120 122 121 120 121 121 121 121 120 123 121 120 121 121 121 121 120 122 121 120 121 121 121 121 120 122 121 121 121 121 120 121 120 122 121 121 121 120 121 120 121 122 121 120 121 120 121 121 120 122 121 121 121 121 121 121 120 122 121 121 121 121 121 121 121 122 121 121 121 121 120 121 120 123 121 120 121 121 121 121 120 122 121 120 121 121 120 120 120 122 121 120 120 121 121 121 120 122 121 121 121 120 120 120 120 122 121 120 120 121 121 121 121
122 121 121 121 121 120 120 121 122 120 120 121 121 121 121 120 122 121 121 121 121 120 121 121 123 121 121 121 121 121 121 121 123 121 120 121 121 121 121 120 123 121 121 121 121 121 121 120 122 121 120 121 121 120 121 120 122 121 120 121 121 120 120 120 122 121 121 121 121 120 121 120 122 121 121 121 121 120 121 120 122 121 120 121 120 120 120 120 123 121 120 120 121 121 121 120 122 121 121 121 121 120 121 121 123 121 120 121 121 121 121 120 122 121 120 121 120 120 120 120 122 121 121 121 121 120 121 120
123 121 121 121 121 121 121 121 122 122 121 121 121 121 121 120 122 121 121 121 120 120 121 121 122 121 120 121 121 121 121 120 123 122 120 121 121 121 121 121 122 121 120 121 120 121 121 120 122 121 121 121 121 120 121 120 123 121 120 121 121 121 121 120 122 121 120 121 121 121 121 120 122 121 120 121 121 121 121 120 122 121 121 121 121 121 120 120 122 121 120 121 121 121 121 120 122 120 120 120 121 120 121 120 123 121 120 120 120 121 121 120 122 121 120 121 121 121 121 120 122 121 121 120 120 120 121 121
122 121 120 121 121 120 120 120 123 122 121 121 120 120 121 121 122 121 120 121 121 121 121 120 123 121 120 120 120 121 121 121 122 121 121 121 121 120 121 121 122 121 121 121 120 120 121 121 122 121 121 121 121 120 121 120 122 121 120 121 121 120 121 120 122 121 121 121 121 121 120 121 122 121 120 121 121 120 121 120 122 121 120 121 121 120 121 120 122 121 120 121 121 120 121 121 122 121 120 120 121 121 121 120 122 121 121 121 122 120 121 120 122 121 121 121 121 120 120 121 123 122 120 121 120 121 121 120
122 122 121 121 120 121 121 121 122 120 120 121 121 121 120 120 122 121 121 121 121 120 120 120 122 121 121 121 121 120 121 120 123 121 120 120 121 120 122 120 122 121 121 121 121 120 121 121 122 121 121 121 121 120 121 121 122 121 121 121 120 120 121 121 123 121 120 121 121 121 121 120 122 121 121 120 120 120 121 121 122 121 121 121 121 120 121 120 123 122 120 121 121 120 121 121 123 121 120 121 121 121 121 120 122 121 121 121 120 120 120 120 123 121 120 121 121 121 121 120 122 121 121 121 120 120 121 121
122 121 121 121 121 120 121 121 122 121 121 121 121 120 121 121 122 121 120 121 121 120 120 120 122 120 121 121 121 120 120 120 122 121 121 121 121 120 121 120 122 121 120 121 121 120 121 120 122 121 121 121 121 120 120 120 122 121 120 121 121 120 120 120 122 121 121 121 121 120 120 120 123 121 121 121 120 120 120 120 123 121 121 121 120 120 121 121 122 121 121 121 120 120 120 120 123 121 120 121 121 121 121 120 122 121 120 122 120 120 120 121 122 121 120 120 120 120 121 120 122 121 120 121 121 121 121 120
122 121 121 121 121 121 121 121 122 121 121 121 121 120 121 121 122 121 121 121 120 120 120 120 122 121 121 121 121 120 121 121 122 122 121 121 121 121 121 120 123 122 121 121 121 121 121 120 122 121 121 121 121 120 121 121 122 121 120 121 121 120 121 120 122 121 120 120 120 121 121 120 122 121 120 121 121 121 121 120 122 121 121 121 121 121 121 120 122 121 121 121 121 120 120 121 122 121 120 121 121 121 121 120 122 121 120 121 121 121 120 120 122 121 120 121 121 121 121 121 123 121 120 121 121 121 121 120
122 121 121 121 120 121 121 121 122 121 121 121 121 120 121 121 123 121 121 121 121 121 121 120 122 121 121 121 120 120 120 120 122 121 121 121 120 120 121 121 123 121 121 121 120 121 121 121 123 121 121 121 121 121 121 120 122 121 120 120 120 120 120 120 122 121 121 121 120 120 121 121 123 121 121 120 121 121 121 120 123 121 121 120 121 121 121 120 122 121 121 121 121 120 121 120 122 120 121 121 121 120 120 120 122 121 121 121 121 120 121 121 122 121 121 121 120 120 121 120 122 121 120 121 121 121 121 120
122 121 121 121 121 120 121 121 122 122 121 121 120 121 121 120 122 121 120 120 120 121 121 120 122 121 120 121 121 121 122 120 123 121 121 120 121 121 121 120 122 121 121 121 120 120 121 121 122 122 121 120 120 121 121 121 122 121 121 121 121 121 121 120 122 121 120 121 121 121 121 120 122 121 121 121 120 120 121 121 122 121 121 121 121 120 121 121 122 122 121 121 120 121 121 121 122 121 120 121 121 121 121 120 122 121 121 121 121 121 120 120 122 121 121 121 120 120 120 120 122 121 120 121 120 120 121 120
122 120 121 121 121 120 120 120 122 120 120 120 121 121 121 120 122 121 120 121 121 120 121 121 123 121 121 121 120 121 121 121 122 122 121 120 120 120 121 121 122 121 121 121 120 120 121 121 123 121 121 121 121 121 122 121 122 121 120 121 121 121 121 120 123 121 120 121 121 121 121 120 122 121 120 121 121 120 120 120 122 121 120 121 121 121 121 120 122 121 120 121 121 121 121 120 122 121 120 121 121 120 121 120 122 121 121 121 121 120 121 121 122 121 121 121 120 120 121 120 123 121 121 121 121 120 121 121
123 121 120 120 121 121 121 120 122 121 121 121 120 120 120 121 122 121 121 121 120 120 121 121 122 121 120 120 120 120 121 120 122 121 121 121 121 120 120 120 122 121 120 121 121 121 121 120 122 121 121 121 121 120 121 121 122 121 120 121 121 120 121 120 122 121 121 121 121 120 121 120 122 121 121 121 120 121 121 121 123 121 120 121 121 121 121 120 122 121 120 121 121 120 121 121 122 121 121 121 120 121 121 121 122 121 121 121 120 120 121 120 122 121 121 121 120 120 121 120 122 121 120 121 121 120 121 120
123 122 120 121 121 121 121 120 122 122 121 120 120 120 121 121 122 121 121 121 121 120 121 121 122 121 121 121 121 120 121 121 123 121 121 121 121 121 121 121 122 121 120 121 121 120 121 120 122 120 120 121 121 120 120 120 122 121 120 120 120 120 121 121 122 121 120 121 121 120 121 120 122 120 120 121 121 121 121 120 123 121 120 121 120 121 121 120 122 122 120 121 121 121 121 121 123 121 120 121 121 121 121 120 123 121 120 121 121 121 121 120 122 121 121 121 121 120 121 121 122 121 121 121 121 120 121 121
122 120 120 121 121 121 121 120 122 121 120 121 121 120 120 120 122 121 120 121 121 121 120 120 122 121 120 121 121 120 120 120 123 122 120 121 120 121 121 120 123 121 121 121 121 121 121 120 122 121 121 121 120 121 121 121 123 121 120 121 121 121 121 121 123 121 121 121 121 121 121 120 123 121 120 120 121 121 121 121 123 121 120 121 121 121 121 120 123 121 120 121 121 121 121 120 122 121 121 121 121 121 121 121 122 121 120 121 121 120 120 120 123 121 121 121 121 121 121 121 122 121 121 121 120 120 121 121
123 121 121 121 121 120 121 121 122 121 121 121 120 120 121 121 123 121 120 121 121 121 121 120 123 121 121 120 121 121 121 120 123 121 120 121 121 121 121 120 123 121 120 121 121 120 121 120 123 121 121 121 121 121 121 120 122 121 120 121 121 120 121 120 121 121 120 120 120 120 121 120 123 121 120 121 121 121 121 120 122 121 120 121 121 121 121 120 122 121 120 121 121 121 120 120 122 121 121 121 121 120 121 121 122 121 121 121 121 120 121 120 123 122 120 121 120 120 121 121 123 121 120 121 121 121 121 120
123 121 120 121 121 121 122 120 122 121 121 121 121 120 121 120 122 121 120 121 121 120 120 121 122 121 120 121 120 120 121 121 123 121 120 121 121 121 121 121 122 121 120 121 121 121 121 120 123 122 120 121 121 120 121 120 123 121 120 121 120 120 121 121 123 121 121 121 121 121 121 120 122 121 121 121 121 121 121 121 122 121 121 121 121 120 121 121 123 121 120 121 121 121 121 120 123 122 121 121 120 121 121 121 122 120 121 121 121 120 121 121 122 120 120 121 121 121 121 120 122 121 120 121 121 121 121 120
122 121 120 121 121 121 121 120 122 121 120 121 121 120 121 120 123 121 120 121 121 121 121 120 123 121 120 120 120 120 121 121 122 121 120 120 120 121 121 120 122 121 121 121 121 120 120 120 122 121 120 121 121 120 121 120 123 121 120 121 121 121 121 120 122 121 120 121 121 121 121 120 122 122 121 121 120 120 121 120 122 121 121 121 120 120 120 120 122 121 121 121 120 120 121 121 123 121 121 121 121 121 121 120 122 121 121 121 121 120 121 121 122 120 120 121 121 120 120 121 123 121 120 121 121 121 121 120
122 121 121 121 121 120 121 120 122 121 120 120 120 121 121 120 122 121 121 121 121 120 121 121 122 121 119 121 120 121 121 120 123 121 120 120 121 121 121 120 122 121 121 121 121 121 121 121 122 121 120 121 121 120 120 120 122 121 121 121 120 120 121 121 122 121 121 121 120 120 121 121 122 121 121 121 121 120 121 120 123 121 120 121 120 120 121 121 123 121 120 121 121 121 121 120 122 121 121 121 120 121 121 121 122 121 120 120 120 120 121 120 122 121 121 121 121 120 121 120 122 121 121 121 120 120 121 121
122 121 120 121 121 120 120 120 122 121 121 121 120 120 121 121 123 121 120 121 121 121 121 120 122 121 121 121 120 121 121 121 123 121 120 120 120 120 121 121 123 121 121 121 121 121 121 120 122 121 121 121 120 120 121 121 122 121 121 121 120 120 121 121 122 121 120 121 120 120 120 121 123 122 121 121 121 121 121 121 122 121 121 121 121 120 121 120 123 121 120 120 121 120 121 120 123 121 120 120 121 121 121 120 122 121 120 121 121 121 121 121 123 121 120 121 121 121 121 120 122 121 120 121 120 120 121 120
122 121 120 121 121 121 122 120 122 121 121 121 121 121 121 120 123 121 120 120 120 121 121 121 122 121 120 121 121 121 121 120 122 120 121 121 121 120 120 121 122 121 120 121 120 120 120 120 122 121 120 121 121 120 121 120 122 120 120 120 120 121 121 121 122 121 121 121 121 120 121 121 123 121 121 120 121 121 121 120 122 121 120 122 121 120 121 121 123 121 120 120 121 121 121 120 122 121 121 121 120 121 121 121 122 121 121 121 121 120 120 120 122 121 121 121 121 120 120 121 123 121 120 121 120 121 121 121
122 121 121 121 121 120 121 121 122 121 121 121 121 120 121 120 123 121 120 121 121 121 121 120 122 121 120 121 121 120 120 121 122 121 121 121 120 120 121 121 123 122 120 121 120 121 121 120 123 122 121 121 120 121 121 121 122 121 120 121 121 120 121 121 122 121 121 121 121 121 120 120 123 121 120 120 121 121 121 120 122 121 121 121 121 120 121 120 122 121 121 121 121 120 121 120 122 121 121 120 120 120 121 120 122 121 121 121 121 120 121 121 122 121 120 121 121 121 121 120 122 121 121 121 121 120 121 121
123 122 121 121 120 121 121 120 123 121 120 121 121 121 121 121 122 121 120 121 121 121 121 120 122 120 120 120 121 121 121 120 122 120 120 120 120 120 121 120 123 122 120 121 121 121 121 121 122 121 121 121 121 120 121 120 123 122 120 120 120 120 121 121 122 121 120 121 121 121 121 120 122 121 120 121 121 121 121 120 122 121 121 121 121 120 121 120 122 121 121 121 120 120 121 120 122 121 121 121 121 120 121 121 122 121 120 121 121 120 121 121 122 120 120 121 121 121 121 120 123 121 120 120 120 120 121 121
122 120 121 121 121 120 121 120 123 121 121 121 120 120 121 121 122 121 120 121 121 121 121 120 123 121 120 121 121 121 121 120 122 121 121 121 121 120 121 121 123 121 120 121 122 121 120 120 122 121 120 120 121 121 121 120 122 121 121 121 120 120 120 120 123 121 120 121 120 120 121 121 122 121 121 121 121 120 120 120 122 121 121 121 121 120 121 121 122 121 121 121 121 120 121 120 122 121 120 121 121 121 121 120 122 121 121 121 121 121 121 121 122 121 121 121 121 120 121 121 122 121 121 121 121 121 121 120
122 121 121 121 121 120 120 121 122 121 121 121 120 120 121 120 122 120 121 121 121 120 121 121 123 121 120 121 121 121 121 120 121 121 120 121 120 121 121 120 123 121 121 121 120 120 121 121 122 121 121 121 120 120 121 121 123 121 120 121 121 121 121 120 122 121 121 121 120 120 121 121 123 121 120 120 121 121 121 120 122 121 120 121 121 120 121 120 122 121 120 121 121 121 121 120 122 121 120 120 121 120 121 121 122 120 121 121 121 121 121 121 123 121 120 120 120 120 121 121 123 121 120 121 121 121 121 120
122 121 121 121 121 121 121 120 123 121 121 121 121 120 121 121 122 121 121 121 120 120 121 121 123 122 120 121 120 120 121 120 123 121 120 121 121 121 121 120 123 121 120 120 120 120 121 121 122 121 121 121 121 120 121 120 122 121 121 121 121 120 121 121 122 120 120 121 121 120 121 120 122 121 121 121 121 120 120 120 122 121 121 121 121 120 121 120 122 120 120 121 121 121 121 120 123 121 120 121 121 121 121 120 122 121 120 121 121 121 121 120 123 121 120 121 121 121 121 120 122 121 120 121 121 120 120 120
122 121 121 121 121 121 121 120 122 121 121 121 121 120 121 121 123 121 120 121 121 121 121 120 122 121 120 121 121 121 120 120 122 121 121 121 120 120 121 120 122 121 121 121 120 120 121 121 122 121 121 121 121 120 121 121 122 121 121 121 121 120 121 121 123 121 121 120 121 121 121 121 122 121 120 120 120 120 120 120 122 121 120 120 120 120 121 120 122 121 120 121 121 120 120 120 122 121 121 121 121 120 121 120 123 121 120 121 121 121 121 121 122 121 121 121 121 121 121 121 122 121 120 121 121 121 121 120
122 121 121 121 121 120 121 121 122 121 120 121 121 121 121 120 122 121 121 121 120 120 121 121 123 121 120 121 121 121 121 120 122 121 121 121 121 120 121 120 122 121 121 121 121 120 121 120 123 121 120 121 121 121 121 120 122 121 121 121 121 121 121 121 122 121 120 121 120 120 121 120 123 121 120 120 120 120 121 121 123 121 121 121 121 121 121 120 122 121 121 121 121 121 121 121 123 121 121 120 121 121 121 121 123 122 120 120 121 121 121 121 122 121 121 121 121 120 120 120 122 121 121 120 120 121 121 121
122 121 120 121 121 121 121 120 123 121 120 121 121 121 121 120 122 121 121 121 121 121 121 121 122 121 121 121 120 120 121 121 122 121 120 121 121 120 120 120 122 121 121 121 121 120 121 121 122 121 121 121 120 120 121 121 123 121 120 121 121 121 121 120 122 122 121 121 120 121 121 121 122 121 121 120 120 120 121 120 122 121 121 121 120 120 121 121 122 121 120 121 121 120 120 120 123 121 121 120 121 121 121 120 123 121 120 121 121 121 120 120 122 121 120 120 121 120 121 120 123 121 120 120 120 120 121 120
122 121 120 121 121 121 120 120 123 121 121 121 120 120 121 120 122 121 121 121 120 120 120 120 122 120 121 121 120 120 120 120 123 121 120 121 121 121 121 120 123 121 120 120 121 121 121 120 123 121 121 121 120 120 121 121 123 121 120 121 121 121 121 120 122 121 121 121 121 120 121 121 123 121 120 120 121 121 121 121 122 121 120 121 121 121 121 120 123 121 120 121 121 121 121 120 122 121 120 120 121 121 121 120 122 121 121 121 120 120 121 120 122 121 121 121 120 120 121 121 123 121 120 121 121 121 121 120
123 121 121 121 121 120 120 120 123 121 121 121 121 121 121 121 122 121 121 121 121 120 120 120 123 121 120 120 120 121 121 120 122 121 120 121 120 120 120 121 122 121 120 121 121 119 121 120 122 121 120 121 121 120 120 120 123 120 120 121 121 121 121 120 122 121 120 120 121 121 121 120 122 121 120 120 121 121 121 120 122 121 120 120 120 121 121 120 122 121 120 121 121 121 122 120 122 122 121 121 121 120 121 121 122 122 120 120 120 121 121 121 122 122 121 121 120 120 121 121 123 122 121 121 120 120 121 120
122 121 120 121 121 120 120 120 122 121 120 121 121 121 121 121 123 121 120 120 120 121 121 120 123 121 120 120 120 121 121 121 123 121 120 120 121 121 121 120 122 121 121 121 121 120 121 121 122 121 121 121 121 120 121 120 123 122 121 120 121 121 121 120 122 121 121 121 121 120 121 120 122 121 121 121 120 120 120 120 122 121 121 121 121 120 120 121 122 121 120 121 120 120 121 121 123 121 120 121 121 121 121 120 123 121 120 121 121 121 121 120 122 121 121 121 121 121 121 121 123 121 120 121 121 121 121 120
123 121 120 121 121 121 121 120 122 121 121 121 121 121 120 120 122 121 120 121 121 120 121 120 122 121 121 121 121 120 121 120 122 121 120 121 121 120 120 121 122 120 120 121 121 121 121 121 122 121 121 121 120 120 121 121 122 121 121 121 120 121 121 121 122 121 120 121 121 120 121 120 122 121 120 121 122 120 120 120 122 121 120 121 121 121 121 120 123 121 120 120 121 120 121 121 122 121 120 120 120 120 121 120 122 120 120 121 121 121 120 120 122 121 121 121 120 120 121 120 122 121 121 121 121 120 121 120
123 122 120 121 120 121 121 121 122 121 120 121 121 121 121 120 122 121 121 121 121 120 121 121 123 121 120 121 121 121 121 120 123 121 120 121 121 121 121 120 122 121 120 121 121 121 121 120 123 121 120 121 121 121 121 120 122 121 120 120 120 120 121 121 122 121 121 121 121 120 121 121 122 121 121 121 120 120 120 121 122 121 120 121 121 120 121 120 123 121 120 121 121 121 121 120 123 121 121 121 121 120 121 120 122 121 121 121 121 120 121 120 122 121 121 121 120 120 120 121 122 121 121 121 121 120 121 120
123 121 121 121 121 121 121 120 122 122 120 121 121 121 122 121 123 121 120 121 121 121 121 120 122 121 120 121 121 120 120 120 122 120 120 121 121 121 121 120 122 121 120 121 121 120 120 120 123 121 121 121 121 121 121 121 122 121 121 121 121 120 121 120 122 121 120 121 121 121 120 120 122 121 121 122 120 120 121 121 122 121 120 120 121 121 121 121 123 121 120 120 121 121 121 120 122 121 121 121 120 120 121 121 122 121 121 121 120 121 121 121 122 121 121 121 121 120 121 120 122 121 120 121 121 121 121 120
122 121 121 121 121 120 121 121 123 121 120 121 120 121 121 120 122 121 120 121 121 120 120 120 123 121 120 120 121 121 121 121 123 121 121 121 121 121 121 121 123 121 121 121 120 121 121 121 122 121 121 121 121 120 121 120 123 121 120 121 121 121 121 120 122 121 121 121 121 121 121 120 123 121 120 120 120 121 121 120 122 120 120 121 120 120 121 120 122 121 121 121 121 120 120 121 123 121 121 120 121 121 121 121 123 121 120 121 120 120 121 121 122 121 120 121 121 120 121 121 123 121 120 120 120 120 121 120
122 121 120 120 121 121 121 121 122 120 120 121 121 120 120 120 122 121 120 121 121 121 121 120 123 121 120 121 121 121 121 120 122 121 120 121 121 121 121 120 123 121 120 120 121 121 121 121 123 121 121 121 120 121 121 120 122 121 121 121 120 120 121 121 122 121 121 121 120 120 121 121 122 121 120 121 121 121 121 120 122 121 121 121 121 120 121 119 122 120 120 121 121 120 120 119 122 121 120 121 121 121 121 120 122 121 120 121 121 121 121 121 123 121 120 121 121 121 121 120 122 121 120 120 121 121 121 121
122 121 121 121 121 120 120 120 122 121 121 121 121 121 121 121 123 121 121 121 120 120 121 120 123 121 121 121 120 121 121 121 122 122 120 121 120 120 121 121 122 122 120 121 121 121 121 120 122 121 120 121 121 121 121 120 122 121 121 121 121 120 121 121 122 121 120 121 121 120 120 120 122 121 121 121 121 121 121 120 122 121 121 121 120 120 120 120 122 121 120 121 121 121 121 120 122 121 120 121 121 121 121 120 123 121 121 121 121 121 121 120 122 121 120 121 121 121 121 120 122 121 121 121 120 120 121 120
123 121 120 121 121 121 121 120 122 121 121 121 121 120 121 120 122 121 121 121 120 120 121 121 123 121 121 121 121 121 121 121 123 121 120 120 121 120 121 121 122 121 121 121 121 121 121 120 123 121 121 120 121 121 121 121 122 121 120 121 121 121 121 120 122 121 121 121 120 120 121 121 122 121 121 121 120 120 121 121 122 121 121 121 120 120 120 120 122 120 120 121 121 121 121 120 122 121 120 121 121 121 121 120 123 121 121 121 121 120 121 121 123 121 121 120 120 121 121 121 122 121 120 121 121 120 120 120
122 121 120 121 121 121 121 120 122 121 121 122 121 120 120 120 122 121 121 121 120 120 120 120 122 121 120 120 120 120 121 121 123 121 121 121 121 121 121 120 122 121 121 121 120 120 121 120 122 121 120 121 121 121 121 120 123 122 120 120 121 120 121 121 123 121 120 120 121 121 121 120 122 121 120 121 121 121 121 120 122 121 120 121 120 120 121 120 122 121 121 121 120 120 121 120 122 121 121 121 120 120 121 120 122 121 120 120 121 121 121 120 122 121 120 121 121 120 120 120 123 121 120 121 121 121 121 120
